Time,PPG
2015-07-24 12:43:00.7,444
2015-07-24 12:43:00.8,425
2015-07-24 12:43:00.8,423
2015-07-24 12:43:00.9,415
2015-07-24 12:43:00.9,406
2015-07-24 12:43:01.0,404
2015-07-24 12:43:01.0,396
2015-07-24 12:43:01.1,393
2015-07-24 12:43:01.1,381
2015-07-24 12:43:01.2,388
2015-07-24 12:43:01.2,389
2015-07-24 12:43:01.3,413
2015-07-24 12:43:01.3,473
2015-07-24 12:43:01.4,567
2015-07-24 12:43:01.4,559
2015-07-24 12:43:01.5,556
2015-07-24 12:43:01.5,555
2015-07-24 12:43:01.6,515
2015-07-24 12:43:01.6,458
2015-07-24 12:43:01.7,433
2015-07-24 12:43:01.7,431
2015-07-24 12:43:01.8,432
2015-07-24 12:43:01.8,420
2015-07-24 12:43:01.9,389
2015-07-24 12:43:01.9,370
2015-07-24 12:43:02.0,381
2015-07-24 12:43:02.0,363
2015-07-24 12:43:02.1,374
2015-07-24 12:43:02.1,393
2015-07-24 12:43:02.2,463
2015-07-24 12:43:02.2,569
2015-07-24 12:43:02.3,559
2015-07-24 12:43:02.3,559
2015-07-24 12:43:02.4,523
2015-07-24 12:43:02.4,498
2015-07-24 12:43:02.5,476
2015-07-24 12:43:02.5,447
2015-07-24 12:43:02.6,447
2015-07-24 12:43:02.6,440
2015-07-24 12:43:02.7,424
2015-07-24 12:43:02.7,400
2015-07-24 12:43:02.8,402
2015-07-24 12:43:02.8,423
2015-07-24 12:43:02.9,392
2015-07-24 12:43:02.9,383
2015-07-24 12:43:03.0,380
2015-07-24 12:43:03.0,419
2015-07-24 12:43:03.1,482
2015-07-24 12:43:03.1,566
2015-07-24 12:43:03.2,550
2015-07-24 12:43:03.2,549
2015-07-24 12:43:03.3,512
2015-07-24 12:43:03.3,436
2015-07-24 12:43:03.4,403
2015-07-24 12:43:03.4,388
2015-07-24 12:43:03.5,370
2015-07-24 12:43:03.5,357
2015-07-24 12:43:03.6,338
2015-07-24 12:43:03.6,338
2015-07-24 12:43:03.7,335
2015-07-24 12:43:03.7,334
2015-07-24 12:43:03.8,330
2015-07-24 12:43:03.8,345
2015-07-24 12:43:03.9,342
2015-07-24 12:43:03.9,368
2015-07-24 12:43:04.0,454
2015-07-24 12:43:04.0,507
2015-07-24 12:43:04.1,501
2015-07-24 12:43:04.1,452
2015-07-24 12:43:04.2,442
2015-07-24 12:43:04.2,445
2015-07-24 12:43:04.3,413
2015-07-24 12:43:04.3,386
2015-07-24 12:43:04.4,375
2015-07-24 12:43:04.4,374
2015-07-24 12:43:04.5,355
2015-07-24 12:43:04.5,348
2015-07-24 12:43:04.6,345
2015-07-24 12:43:04.7,331
2015-07-24 12:43:04.7,348
2015-07-24 12:43:04.7,372
2015-07-24 12:43:04.8,398
2015-07-24 12:43:04.9,432
2015-07-24 12:43:04.9,494
2015-07-24 12:43:05.0,540
2015-07-24 12:43:05.0,538
2015-07-24 12:43:05.1,507
2015-07-24 12:43:05.1,456
2015-07-24 12:43:05.2,433
2015-07-24 12:43:05.2,417
2015-07-24 12:43:05.3,416
2015-07-24 12:43:05.3,402
2015-07-24 12:43:05.4,385
2015-07-24 12:43:05.4,367
2015-07-24 12:43:05.5,362
2015-07-24 12:43:05.5,353
2015-07-24 12:43:05.6,346
2015-07-24 12:43:05.6,378
2015-07-24 12:43:05.7,370
2015-07-24 12:43:05.7,346
2015-07-24 12:43:05.8,347
2015-07-24 12:43:05.8,402
2015-07-24 12:43:05.9,492
2015-07-24 12:43:05.9,542
2015-07-24 12:43:06.0,560
2015-07-24 12:43:06.0,525
2015-07-24 12:43:06.1,484
2015-07-24 12:43:06.1,441
2015-07-24 12:43:06.2,440
2015-07-24 12:43:06.2,427
2015-07-24 12:43:06.3,405
2015-07-24 12:43:06.3,407
2015-07-24 12:43:06.4,395
2015-07-24 12:43:06.4,400
2015-07-24 12:43:06.5,377
2015-07-24 12:43:06.5,352
2015-07-24 12:43:06.6,342
2015-07-24 12:43:06.6,332
2015-07-24 12:43:06.7,339
2015-07-24 12:43:06.7,354
2015-07-24 12:43:06.8,367
2015-07-24 12:43:06.8,396
2015-07-24 12:43:06.9,482
2015-07-24 12:43:06.9,542
2015-07-24 12:43:07.0,558
2015-07-24 12:43:07.0,503
2015-07-24 12:43:07.1,448
2015-07-24 12:43:07.1,428
2015-07-24 12:43:07.2,420
2015-07-24 12:43:07.2,431
2015-07-24 12:43:07.3,409
2015-07-24 12:43:07.3,379
2015-07-24 12:43:07.4,370
2015-07-24 12:43:07.4,370
2015-07-24 12:43:07.5,364
2015-07-24 12:43:07.5,350
2015-07-24 12:43:07.6,356
2015-07-24 12:43:07.6,371
2015-07-24 12:43:07.7,399
2015-07-24 12:43:07.7,414
2015-07-24 12:43:07.8,429
2015-07-24 12:43:07.8,503
2015-07-24 12:43:07.9,540
2015-07-24 12:43:07.9,537
2015-07-24 12:43:08.0,494
2015-07-24 12:43:08.0,436
2015-07-24 12:43:08.1,424
2015-07-24 12:43:08.1,422
2015-07-24 12:43:08.2,438
2015-07-24 12:43:08.2,401
2015-07-24 12:43:08.3,383
2015-07-24 12:43:08.3,374
2015-07-24 12:43:08.4,360
2015-07-24 12:43:08.4,364
2015-07-24 12:43:08.5,372
2015-07-24 12:43:08.5,369
2015-07-24 12:43:08.6,354
2015-07-24 12:43:08.6,358
2015-07-24 12:43:08.7,365
2015-07-24 12:43:08.7,353
2015-07-24 12:43:08.8,404
2015-07-24 12:43:08.8,490
2015-07-24 12:43:08.9,553
2015-07-24 12:43:08.9,560
2015-07-24 12:43:09.0,525
2015-07-24 12:43:09.0,474
2015-07-24 12:43:09.1,433
2015-07-24 12:43:09.1,431
2015-07-24 12:43:09.2,425
2015-07-24 12:43:09.2,426
2015-07-24 12:43:09.3,388
2015-07-24 12:43:09.3,404
2015-07-24 12:43:09.4,386
2015-07-24 12:43:09.4,362
2015-07-24 12:43:09.5,366
2015-07-24 12:43:09.5,383
2015-07-24 12:43:09.6,375
2015-07-24 12:43:09.6,360
2015-07-24 12:43:09.7,390
2015-07-24 12:43:09.7,397
2015-07-24 12:43:09.8,393
2015-07-24 12:43:09.8,441
2015-07-24 12:43:09.9,508
2015-07-24 12:43:09.9,537
2015-07-24 12:43:10.0,515
2015-07-24 12:43:10.0,479
2015-07-24 12:43:10.1,443
2015-07-24 12:43:10.1,458
2015-07-24 12:43:10.2,440
2015-07-24 12:43:10.2,412
2015-07-24 12:43:10.3,399
2015-07-24 12:43:10.3,390
2015-07-24 12:43:10.4,400
2015-07-24 12:43:10.4,399
2015-07-24 12:43:10.5,393
2015-07-24 12:43:10.5,376
2015-07-24 12:43:10.6,378
2015-07-24 12:43:10.6,371
2015-07-24 12:43:10.7,354
2015-07-24 12:43:10.7,368
2015-07-24 12:43:10.8,382
2015-07-24 12:43:10.8,423
2015-07-24 12:43:10.9,457
2015-07-24 12:43:10.9,499
2015-07-24 12:43:11.0,504
2015-07-24 12:43:11.0,489
2015-07-24 12:43:11.1,476
2015-07-24 12:43:11.1,442
2015-07-24 12:43:11.2,422
2015-07-24 12:43:11.2,402
2015-07-24 12:43:11.3,395
2015-07-24 12:43:11.3,387
2015-07-24 12:43:11.4,385
2015-07-24 12:43:11.4,393
2015-07-24 12:43:11.5,368
2015-07-24 12:43:11.5,356
2015-07-24 12:43:11.6,343
2015-07-24 12:43:11.6,348
2015-07-24 12:43:11.7,353
2015-07-24 12:43:11.7,344
2015-07-24 12:43:11.8,354
2015-07-24 12:43:11.8,372
2015-07-24 12:43:11.9,433
2015-07-24 12:43:11.9,499
2015-07-24 12:43:12.0,543
2015-07-24 12:43:12.0,551
2015-07-24 12:43:12.1,505
2015-07-24 12:43:12.1,465
2015-07-24 12:43:12.2,445
2015-07-24 12:43:12.2,433
2015-07-24 12:43:12.3,416
2015-07-24 12:43:12.3,414
2015-07-24 12:43:12.4,430
2015-07-24 12:43:12.4,413
2015-07-24 12:43:12.5,391
2015-07-24 12:43:12.5,378
2015-07-24 12:43:12.6,371
2015-07-24 12:43:12.6,356
2015-07-24 12:43:12.7,359
2015-07-24 12:43:12.8,364
2015-07-24 12:43:12.8,355
2015-07-24 12:43:12.9,363
2015-07-24 12:43:12.9,378
2015-07-24 12:43:13.0,412
2015-07-24 12:43:13.0,475
2015-07-24 12:43:13.1,538
2015-07-24 12:43:13.1,560
2015-07-24 12:43:13.2,543
2015-07-24 12:43:13.2,525
2015-07-24 12:43:13.3,526
2015-07-24 12:43:13.3,523
2015-07-24 12:43:13.4,464
2015-07-24 12:43:13.4,417
2015-07-24 12:43:13.5,384
2015-07-24 12:43:13.5,357
2015-07-24 12:43:13.6,352
2015-07-24 12:43:13.6,354
2015-07-24 12:43:13.7,362
2015-07-24 12:43:13.7,370
2015-07-24 12:43:13.8,402
2015-07-24 12:43:13.8,426
2015-07-24 12:43:13.9,393
2015-07-24 12:43:13.9,361
2015-07-24 12:43:14.0,370
2015-07-24 12:43:14.0,444
2015-07-24 12:43:14.1,491
2015-07-24 12:43:14.1,510
2015-07-24 12:43:14.2,493
2015-07-24 12:43:14.2,462
2015-07-24 12:43:14.3,429
2015-07-24 12:43:14.3,397
2015-07-24 12:43:14.4,375
2015-07-24 12:43:14.4,349
2015-07-24 12:43:14.5,351
2015-07-24 12:43:14.5,355
2015-07-24 12:43:14.6,351
2015-07-24 12:43:14.6,346
2015-07-24 12:43:14.7,344
2015-07-24 12:43:14.7,338
2015-07-24 12:43:14.8,331
2015-07-24 12:43:14.8,321
2015-07-24 12:43:14.9,319
2015-07-24 12:43:14.9,328
2015-07-24 12:43:15.0,348
2015-07-24 12:43:15.0,420
2015-07-24 12:43:15.1,489
2015-07-24 12:43:15.1,529
2015-07-24 12:43:15.2,555
2015-07-24 12:43:15.2,516
2015-07-24 12:43:15.3,460
2015-07-24 12:43:15.3,426
2015-07-24 12:43:15.4,432
2015-07-24 12:43:15.4,430
2015-07-24 12:43:15.5,412
2015-07-24 12:43:15.5,410
2015-07-24 12:43:15.6,403
2015-07-24 12:43:15.6,397
2015-07-24 12:43:15.7,380
2015-07-24 12:43:15.7,391
2015-07-24 12:43:15.8,393
2015-07-24 12:43:15.8,379
2015-07-24 12:43:15.9,378
2015-07-24 12:43:15.9,372
2015-07-24 12:43:16.0,379
2015-07-24 12:43:16.0,408
2015-07-24 12:43:16.1,472
2015-07-24 12:43:16.1,515
2015-07-24 12:43:16.2,504
2015-07-24 12:43:16.2,486
2015-07-24 12:43:16.3,479
2015-07-24 12:43:16.3,459
2015-07-24 12:43:16.4,481
2015-07-24 12:43:16.4,489
2015-07-24 12:43:16.5,445
2015-07-24 12:43:16.5,382
2015-07-24 12:43:16.6,370
2015-07-24 12:43:16.6,366
2015-07-24 12:43:16.7,385
2015-07-24 12:43:16.7,379
2015-07-24 12:43:16.8,387
2015-07-24 12:43:16.8,397
2015-07-24 12:43:16.9,362
2015-07-24 12:43:16.9,366
2015-07-24 12:43:17.0,421
2015-07-24 12:43:17.0,479
2015-07-24 12:43:17.1,523
2015-07-24 12:43:17.1,558
2015-07-24 12:43:17.2,539
2015-07-24 12:43:17.2,477
2015-07-24 12:43:17.3,435
2015-07-24 12:43:17.3,398
2015-07-24 12:43:17.4,380
2015-07-24 12:43:17.4,369
2015-07-24 12:43:17.5,373
2015-07-24 12:43:17.5,383
2015-07-24 12:43:17.6,376
2015-07-24 12:43:17.6,389
2015-07-24 12:43:17.7,390
2015-07-24 12:43:17.7,374
2015-07-24 12:43:17.8,364
2015-07-24 12:43:17.8,393
2015-07-24 12:43:17.9,446
2015-07-24 12:43:17.9,486
2015-07-24 12:43:18.0,507
2015-07-24 12:43:18.0,501
2015-07-24 12:43:18.1,505
2015-07-24 12:43:18.1,484
2015-07-24 12:43:18.2,467
2015-07-24 12:43:18.2,437
2015-07-24 12:43:18.3,419
2015-07-24 12:43:18.3,412
2015-07-24 12:43:18.4,404
2015-07-24 12:43:18.4,393
2015-07-24 12:43:18.5,371
2015-07-24 12:43:18.5,365
2015-07-24 12:43:18.6,363
2015-07-24 12:43:18.6,361
2015-07-24 12:43:18.7,356
2015-07-24 12:43:18.7,357
2015-07-24 12:43:18.8,363
2015-07-24 12:43:18.8,399
2015-07-24 12:43:18.9,479
2015-07-24 12:43:18.9,521
2015-07-24 12:43:19.0,529
2015-07-24 12:43:19.0,506
2015-07-24 12:43:19.1,465
2015-07-24 12:43:19.1,438
2015-07-24 12:43:19.2,436
2015-07-24 12:43:19.2,459
2015-07-24 12:43:19.3,445
2015-07-24 12:43:19.3,404
2015-07-24 12:43:19.4,384
2015-07-24 12:43:19.4,374
2015-07-24 12:43:19.5,373
2015-07-24 12:43:19.5,364
2015-07-24 12:43:19.6,368
2015-07-24 12:43:19.6,366
2015-07-24 12:43:19.7,370
2015-07-24 12:43:19.7,382
2015-07-24 12:43:19.8,441
2015-07-24 12:43:19.8,509
2015-07-24 12:43:19.9,517
2015-07-24 12:43:19.9,525
2015-07-24 12:43:20.0,512
2015-07-24 12:43:20.0,498
2015-07-24 12:43:20.1,464
2015-07-24 12:43:20.1,448
2015-07-24 12:43:20.2,442
2015-07-24 12:43:20.2,427
2015-07-24 12:43:20.3,419
2015-07-24 12:43:20.3,402
2015-07-24 12:43:20.4,386
2015-07-24 12:43:20.4,364
2015-07-24 12:43:20.5,362
2015-07-24 12:43:20.6,370
2015-07-24 12:43:20.6,356
2015-07-24 12:43:20.7,333
2015-07-24 12:43:20.7,321
2015-07-24 12:43:20.8,322
2015-07-24 12:43:20.8,342
2015-07-24 12:43:20.9,426
2015-07-24 12:43:20.9,488
2015-07-24 12:43:21.0,500
2015-07-24 12:43:21.0,495
2015-07-24 12:43:21.1,467
2015-07-24 12:43:21.1,441
2015-07-24 12:43:21.2,424
2015-07-24 12:43:21.2,439
2015-07-24 12:43:21.3,433
2015-07-24 12:43:21.3,407
2015-07-24 12:43:21.4,413
2015-07-24 12:43:21.4,431
2015-07-24 12:43:21.5,419
2015-07-24 12:43:21.5,377
2015-07-24 12:43:21.6,371
2015-07-24 12:43:21.6,380
2015-07-24 12:43:21.7,368
2015-07-24 12:43:21.7,367
2015-07-24 12:43:21.8,370
2015-07-24 12:43:21.8,393
2015-07-24 12:43:21.9,396
2015-07-24 12:43:21.9,439
2015-07-24 12:43:22.0,505
2015-07-24 12:43:22.0,514
2015-07-24 12:43:22.1,493
2015-07-24 12:43:22.1,446
2015-07-24 12:43:22.2,420
2015-07-24 12:43:22.2,401
2015-07-24 12:43:22.3,438
2015-07-24 12:43:22.3,427
2015-07-24 12:43:22.4,382
2015-07-24 12:43:22.4,387
2015-07-24 12:43:22.5,366
2015-07-24 12:43:22.5,361
2015-07-24 12:43:22.6,353
2015-07-24 12:43:22.6,361
2015-07-24 12:43:22.7,361
2015-07-24 12:43:22.7,360
2015-07-24 12:43:22.8,392
2015-07-24 12:43:22.8,408
2015-07-24 12:43:22.9,407
2015-07-24 12:43:22.9,415
2015-07-24 12:43:23.0,485
2015-07-24 12:43:23.0,535
2015-07-24 12:43:23.1,540
2015-07-24 12:43:23.1,492
2015-07-24 12:43:23.2,444
2015-07-24 12:43:23.2,433
2015-07-24 12:43:23.3,427
2015-07-24 12:43:23.3,453
2015-07-24 12:43:23.4,449
2015-07-24 12:43:23.4,413
2015-07-24 12:43:23.5,397
2015-07-24 12:43:23.5,404
2015-07-24 12:43:23.6,401
2015-07-24 12:43:23.6,387
2015-07-24 12:43:23.7,372
2015-07-24 12:43:23.7,366
2015-07-24 12:43:23.8,364
2015-07-24 12:43:23.8,373
2015-07-24 12:43:23.9,370
2015-07-24 12:43:23.9,379
2015-07-24 12:43:24.0,391
2015-07-24 12:43:24.0,462
2015-07-24 12:43:24.1,509
2015-07-24 12:43:24.1,510
2015-07-24 12:43:24.2,478
2015-07-24 12:43:24.2,460
2015-07-24 12:43:24.3,445
2015-07-24 12:43:24.3,431
2015-07-24 12:43:24.4,455
2015-07-24 12:43:24.4,460
2015-07-24 12:43:24.5,435
2015-07-24 12:43:24.5,406
2015-07-24 12:43:24.6,372
2015-07-24 12:43:24.6,359
2015-07-24 12:43:24.7,374
2015-07-24 12:43:24.7,387
2015-07-24 12:43:24.8,358
2015-07-24 12:43:24.8,340
2015-07-24 12:43:24.9,328
2015-07-24 12:43:24.9,366
2015-07-24 12:43:25.0,380
2015-07-24 12:43:25.0,404
2015-07-24 12:43:25.1,472
2015-07-24 12:43:25.1,526
2015-07-24 12:43:25.2,558
2015-07-24 12:43:25.2,524
2015-07-24 12:43:25.3,507
2015-07-24 12:43:25.3,496
2015-07-24 12:43:25.4,463
2015-07-24 12:43:25.4,441
2015-07-24 12:43:25.5,423
2015-07-24 12:43:25.5,403
2015-07-24 12:43:25.6,378
2015-07-24 12:43:25.6,375
2015-07-24 12:43:25.7,390
2015-07-24 12:43:25.7,395
2015-07-24 12:43:25.8,407
2015-07-24 12:43:25.8,405
2015-07-24 12:43:25.9,385
2015-07-24 12:43:25.9,345
2015-07-24 12:43:26.0,355
2015-07-24 12:43:26.0,407
2015-07-24 12:43:26.1,451
2015-07-24 12:43:26.1,487
2015-07-24 12:43:26.2,477
2015-07-24 12:43:26.2,451
2015-07-24 12:43:26.3,418
2015-07-24 12:43:26.3,416
2015-07-24 12:43:26.4,435
2015-07-24 12:43:26.4,441
2015-07-24 12:43:26.5,399
2015-07-24 12:43:26.5,368
2015-07-24 12:43:26.6,374
2015-07-24 12:43:26.6,377
2015-07-24 12:43:26.7,390
2015-07-24 12:43:26.7,393
2015-07-24 12:43:26.8,372
2015-07-24 12:43:26.8,373
2015-07-24 12:43:26.9,382
2015-07-24 12:43:26.9,362
2015-07-24 12:43:27.0,343
2015-07-24 12:43:27.0,396
2015-07-24 12:43:27.1,466
2015-07-24 12:43:27.1,490
2015-07-24 12:43:27.2,485
2015-07-24 12:43:27.2,463
2015-07-24 12:43:27.3,446
2015-07-24 12:43:27.3,431
2015-07-24 12:43:27.4,461
2015-07-24 12:43:27.4,442
2015-07-24 12:43:27.5,397
2015-07-24 12:43:27.5,392
2015-07-24 12:43:27.6,392
2015-07-24 12:43:27.6,395
2015-07-24 12:43:27.7,384
2015-07-24 12:43:27.7,390
2015-07-24 12:43:27.8,398
2015-07-24 12:43:27.8,397
2015-07-24 12:43:27.9,404
2015-07-24 12:43:27.9,455
2015-07-24 12:43:28.0,516
2015-07-24 12:43:28.0,547
2015-07-24 12:43:28.1,559
2015-07-24 12:43:28.1,532
2015-07-24 12:43:28.2,481
2015-07-24 12:43:28.2,464
2015-07-24 12:43:28.3,459
2015-07-24 12:43:28.4,445
2015-07-24 12:43:28.4,398
2015-07-24 12:43:28.4,384
2015-07-24 12:43:28.5,372
2015-07-24 12:43:28.5,369
2015-07-24 12:43:28.6,364
2015-07-24 12:43:28.6,359
2015-07-24 12:43:28.7,368
2015-07-24 12:43:28.8,397
2015-07-24 12:43:28.8,416
2015-07-24 12:43:28.8,398
2015-07-24 12:43:28.9,391
2015-07-24 12:43:29.0,438
2015-07-24 12:43:29.0,497
2015-07-24 12:43:29.1,513
2015-07-24 12:43:29.1,487
2015-07-24 12:43:29.2,466
2015-07-24 12:43:29.2,443
2015-07-24 12:43:29.3,434
2015-07-24 12:43:29.3,414
2015-07-24 12:43:29.4,408
2015-07-24 12:43:29.4,410
2015-07-24 12:43:29.5,386
2015-07-24 12:43:29.5,381
2015-07-24 12:43:29.6,390
2015-07-24 12:43:29.6,383
2015-07-24 12:43:29.7,362
2015-07-24 12:43:29.7,358
2015-07-24 12:43:29.8,360
2015-07-24 12:43:29.8,366
2015-07-24 12:43:29.9,378
2015-07-24 12:43:29.9,378
2015-07-24 12:43:30.0,420
2015-07-24 12:43:30.0,484
2015-07-24 12:43:30.1,538
2015-07-24 12:43:30.1,559
2015-07-24 12:43:30.2,527
2015-07-24 12:43:30.2,481
2015-07-24 12:43:30.3,448
2015-07-24 12:43:30.3,441
2015-07-24 12:43:30.4,451
2015-07-24 12:43:30.4,424
2015-07-24 12:43:30.5,396
2015-07-24 12:43:30.5,369
2015-07-24 12:43:30.6,366
2015-07-24 12:43:30.6,366
2015-07-24 12:43:30.7,366
2015-07-24 12:43:30.7,350
2015-07-24 12:43:30.8,352
2015-07-24 12:43:30.8,349
2015-07-24 12:43:30.9,337
2015-07-24 12:43:30.9,339
2015-07-24 12:43:31.0,343
2015-07-24 12:43:31.0,386
2015-07-24 12:43:31.1,454
2015-07-24 12:43:31.1,514
2015-07-24 12:43:31.2,519
2015-07-24 12:43:31.2,484
2015-07-24 12:43:31.3,461
2015-07-24 12:43:31.3,444
2015-07-24 12:43:31.4,448
2015-07-24 12:43:31.4,475
2015-07-24 12:43:31.5,453
2015-07-24 12:43:31.5,397
2015-07-24 12:43:31.6,361
2015-07-24 12:43:31.6,357
2015-07-24 12:43:31.7,357
2015-07-24 12:43:31.7,377
2015-07-24 12:43:31.8,379
2015-07-24 12:43:31.8,394
2015-07-24 12:43:31.9,377
2015-07-24 12:43:31.9,357
2015-07-24 12:43:32.0,356
2015-07-24 12:43:32.0,346
2015-07-24 12:43:32.1,360
2015-07-24 12:43:32.1,410
2015-07-24 12:43:32.2,491
2015-07-24 12:43:32.2,531
2015-07-24 12:43:32.3,535
2015-07-24 12:43:32.3,508
2015-07-24 12:43:32.4,469
2015-07-24 12:43:32.4,443
2015-07-24 12:43:32.5,420
2015-07-24 12:43:32.5,416
2015-07-24 12:43:32.6,405
2015-07-24 12:43:32.6,393
2015-07-24 12:43:32.7,384
2015-07-24 12:43:32.7,379
2015-07-24 12:43:32.8,375
2015-07-24 12:43:32.8,362
2015-07-24 12:43:32.9,367
2015-07-24 12:43:32.9,368
2015-07-24 12:43:33.0,371
2015-07-24 12:43:33.0,375
2015-07-24 12:43:33.1,371
2015-07-24 12:43:33.1,373
2015-07-24 12:43:33.2,366
2015-07-24 12:43:33.2,419
2015-07-24 12:43:33.3,490
2015-07-24 12:43:33.3,528
2015-07-24 12:43:33.4,521
2015-07-24 12:43:33.4,503
2015-07-24 12:43:33.5,500
2015-07-24 12:43:33.5,456
2015-07-24 12:43:33.6,432
2015-07-24 12:43:33.6,423
2015-07-24 12:43:33.7,409
2015-07-24 12:43:33.7,384
2015-07-24 12:43:33.8,381
2015-07-24 12:43:33.8,381
2015-07-24 12:43:33.9,368
2015-07-24 12:43:33.9,373
2015-07-24 12:43:34.0,375
2015-07-24 12:43:34.0,374
2015-07-24 12:43:34.1,363
2015-07-24 12:43:34.1,372
2015-07-24 12:43:34.2,397
2015-07-24 12:43:34.2,430
2015-07-24 12:43:34.3,473
2015-07-24 12:43:34.3,544
2015-07-24 12:43:34.4,560
2015-07-24 12:43:34.4,541
2015-07-24 12:43:34.5,509
2015-07-24 12:43:34.5,441
2015-07-24 12:43:34.6,400
2015-07-24 12:43:34.6,399
2015-07-24 12:43:34.7,397
2015-07-24 12:43:34.7,405
2015-07-24 12:43:34.8,397
2015-07-24 12:43:34.8,401
2015-07-24 12:43:34.9,376
2015-07-24 12:43:34.9,348
2015-07-24 12:43:35.0,350
2015-07-24 12:43:35.0,357
2015-07-24 12:43:35.1,361
2015-07-24 12:43:35.1,367
2015-07-24 12:43:35.2,371
2015-07-24 12:43:35.2,370
2015-07-24 12:43:35.3,356
2015-07-24 12:43:35.3,391
2015-07-24 12:43:35.4,463
2015-07-24 12:43:35.4,518
2015-07-24 12:43:35.5,518
2015-07-24 12:43:35.5,509
2015-07-24 12:43:35.6,483
2015-07-24 12:43:35.6,448
2015-07-24 12:43:35.7,442
2015-07-24 12:43:35.7,439
2015-07-24 12:43:35.8,425
2015-07-24 12:43:35.8,401
2015-07-24 12:43:35.9,395
2015-07-24 12:43:35.9,389
2015-07-24 12:43:36.0,371
2015-07-24 12:43:36.0,376
2015-07-24 12:43:36.1,379
2015-07-24 12:43:36.1,380
2015-07-24 12:43:36.2,369
2015-07-24 12:43:36.2,376
2015-07-24 12:43:36.3,378
2015-07-24 12:43:36.3,362
2015-07-24 12:43:36.4,394
2015-07-24 12:43:36.4,451
2015-07-24 12:43:36.5,501
2015-07-24 12:43:36.6,511
2015-07-24 12:43:36.6,510
2015-07-24 12:43:36.6,489
2015-07-24 12:43:36.7,467
2015-07-24 12:43:36.7,454
2015-07-24 12:43:36.8,440
2015-07-24 12:43:36.9,436
2015-07-24 12:43:36.9,422
2015-07-24 12:43:37.0,434
2015-07-24 12:43:37.0,420
2015-07-24 12:43:37.1,396
2015-07-24 12:43:37.1,386
2015-07-24 12:43:37.2,386
2015-07-24 12:43:37.2,383
2015-07-24 12:43:37.3,373
2015-07-24 12:43:37.3,380
2015-07-24 12:43:37.4,386
2015-07-24 12:43:37.4,383
2015-07-24 12:43:37.5,400
2015-07-24 12:43:37.5,461
2015-07-24 12:43:37.6,512
2015-07-24 12:43:37.6,516
2015-07-24 12:43:37.7,509
2015-07-24 12:43:37.7,496
2015-07-24 12:43:37.8,492
2015-07-24 12:43:37.8,485
2015-07-24 12:43:37.9,468
2015-07-24 12:43:37.9,426
2015-07-24 12:43:38.0,387
2015-07-24 12:43:38.0,382
2015-07-24 12:43:38.1,377
2015-07-24 12:43:38.1,375
2015-07-24 12:43:38.2,353
2015-07-24 12:43:38.2,352
2015-07-24 12:43:38.3,350
2015-07-24 12:43:38.3,338
2015-07-24 12:43:38.4,345
2015-07-24 12:43:38.4,350
2015-07-24 12:43:38.5,346
2015-07-24 12:43:38.5,343
2015-07-24 12:43:38.6,404
2015-07-24 12:43:38.6,472
2015-07-24 12:43:38.7,496
2015-07-24 12:43:38.7,500
2015-07-24 12:43:38.8,478
2015-07-24 12:43:38.8,448
2015-07-24 12:43:38.9,421
2015-07-24 12:43:38.9,419
2015-07-24 12:43:39.0,412
2015-07-24 12:43:39.0,393
2015-07-24 12:43:39.1,391
2015-07-24 12:43:39.1,388
2015-07-24 12:43:39.2,409
2015-07-24 12:43:39.2,381
2015-07-24 12:43:39.3,392
2015-07-24 12:43:39.3,413
2015-07-24 12:43:39.4,373
2015-07-24 12:43:39.4,366
2015-07-24 12:43:39.5,365
2015-07-24 12:43:39.5,379
2015-07-24 12:43:39.6,424
2015-07-24 12:43:39.6,515
2015-07-24 12:43:39.7,559
2015-07-24 12:43:39.7,546
2015-07-24 12:43:39.8,498
2015-07-24 12:43:39.8,445
2015-07-24 12:43:39.9,421
2015-07-24 12:43:39.9,402
2015-07-24 12:43:40.0,400
2015-07-24 12:43:40.0,394
2015-07-24 12:43:40.1,375
2015-07-24 12:43:40.1,369
2015-07-24 12:43:40.2,368
2015-07-24 12:43:40.2,375
2015-07-24 12:43:40.3,378
2015-07-24 12:43:40.3,384
2015-07-24 12:43:40.4,396
2015-07-24 12:43:40.4,398
2015-07-24 12:43:40.5,426
2015-07-24 12:43:40.5,474
2015-07-24 12:43:40.6,562
2015-07-24 12:43:40.6,560
2015-07-24 12:43:40.7,559
2015-07-24 12:43:40.7,559
2015-07-24 12:43:40.8,560
2015-07-24 12:43:40.8,560
2015-07-24 12:43:40.9,557
2015-07-24 12:43:40.9,535
2015-07-24 12:43:41.0,481
2015-07-24 12:43:41.0,439
2015-07-24 12:43:41.1,414
2015-07-24 12:43:41.1,387
2015-07-24 12:43:41.2,381
2015-07-24 12:43:41.2,374
2015-07-24 12:43:41.3,368
2015-07-24 12:43:41.3,352
2015-07-24 12:43:41.4,354
2015-07-24 12:43:41.4,348
2015-07-24 12:43:41.5,344
2015-07-24 12:43:41.5,383
2015-07-24 12:43:41.6,514
2015-07-24 12:43:41.6,558
2015-07-24 12:43:41.7,559
2015-07-24 12:43:41.7,559
2015-07-24 12:43:41.8,525
2015-07-24 12:43:41.8,477
2015-07-24 12:43:41.9,444
2015-07-24 12:43:41.9,433
2015-07-24 12:43:42.0,415
2015-07-24 12:43:42.0,388
2015-07-24 12:43:42.1,355
2015-07-24 12:43:42.1,334
2015-07-24 12:43:42.2,323
2015-07-24 12:43:42.2,307
2015-07-24 12:43:42.3,309
2015-07-24 12:43:42.3,312
2015-07-24 12:43:42.4,322
2015-07-24 12:43:42.4,336
2015-07-24 12:43:42.5,314
2015-07-24 12:43:42.5,330
2015-07-24 12:43:42.6,456
2015-07-24 12:43:42.6,569
2015-07-24 12:43:42.7,559
2015-07-24 12:43:42.7,534
2015-07-24 12:43:42.8,491
2015-07-24 12:43:42.8,439
2015-07-24 12:43:42.9,426
2015-07-24 12:43:42.9,405
2015-07-24 12:43:43.0,393
2015-07-24 12:43:43.0,373
2015-07-24 12:43:43.1,347
2015-07-24 12:43:43.1,339
2015-07-24 12:43:43.2,334
2015-07-24 12:43:43.2,339
2015-07-24 12:43:43.3,330
2015-07-24 12:43:43.3,333
2015-07-24 12:43:43.4,334
2015-07-24 12:43:43.4,321
2015-07-24 12:43:43.5,339
2015-07-24 12:43:43.5,436
2015-07-24 12:43:43.6,575
2015-07-24 12:43:43.6,559
2015-07-24 12:43:43.7,560
2015-07-24 12:43:43.7,544
2015-07-24 12:43:43.8,505
2015-07-24 12:43:43.8,478
2015-07-24 12:43:43.9,430
2015-07-24 12:43:43.9,395
2015-07-24 12:43:44.0,364
2015-07-24 12:43:44.0,354
2015-07-24 12:43:44.1,343
2015-07-24 12:43:44.1,331
2015-07-24 12:43:44.2,332
2015-07-24 12:43:44.2,334
2015-07-24 12:43:44.3,337
2015-07-24 12:43:44.3,326
2015-07-24 12:43:44.4,329
2015-07-24 12:43:44.5,342
2015-07-24 12:43:44.5,442
2015-07-24 12:43:44.5,583
2015-07-24 12:43:44.6,559
2015-07-24 12:43:44.7,560
2015-07-24 12:43:44.7,545
2015-07-24 12:43:44.8,513
2015-07-24 12:43:44.8,477
2015-07-24 12:43:44.9,444
2015-07-24 12:43:44.9,436
2015-07-24 12:43:45.0,410
2015-07-24 12:43:45.0,384
2015-07-24 12:43:45.1,358
2015-07-24 12:43:45.1,353
2015-07-24 12:43:45.2,354
2015-07-24 12:43:45.2,342
2015-07-24 12:43:45.3,341
2015-07-24 12:43:45.3,345
2015-07-24 12:43:45.4,369
2015-07-24 12:43:45.4,353
2015-07-24 12:43:45.5,355
2015-07-24 12:43:45.5,475
2015-07-24 12:43:45.6,583
2015-07-24 12:43:45.6,560
2015-07-24 12:43:45.7,559
2015-07-24 12:43:45.7,556
2015-07-24 12:43:45.8,522
2015-07-24 12:43:45.8,480
2015-07-24 12:43:45.9,444
2015-07-24 12:43:45.9,413
2015-07-24 12:43:46.0,384
2015-07-24 12:43:46.0,360
2015-07-24 12:43:46.1,378
2015-07-24 12:43:46.1,390
2015-07-24 12:43:46.2,391
2015-07-24 12:43:46.2,347
2015-07-24 12:43:46.3,318
2015-07-24 12:43:46.3,332
2015-07-24 12:43:46.4,309
2015-07-24 12:43:46.4,284
2015-07-24 12:43:46.5,285
2015-07-24 12:43:46.5,375
2015-07-24 12:43:46.6,575
2015-07-24 12:43:46.6,559
2015-07-24 12:43:46.7,559
2015-07-24 12:43:46.7,558
2015-07-24 12:43:46.8,518
2015-07-24 12:43:46.8,473
2015-07-24 12:43:46.9,444
2015-07-24 12:43:46.9,410
2015-07-24 12:43:47.0,379
2015-07-24 12:43:47.0,341
2015-07-24 12:43:47.1,333
2015-07-24 12:43:47.1,328
2015-07-24 12:43:47.2,314
2015-07-24 12:43:47.2,321
2015-07-24 12:43:47.3,327
2015-07-24 12:43:47.3,328
2015-07-24 12:43:47.4,329
2015-07-24 12:43:47.4,351
2015-07-24 12:43:47.5,359
2015-07-24 12:43:47.5,514
2015-07-24 12:43:47.6,571
2015-07-24 12:43:47.6,567
2015-07-24 12:43:47.7,559
2015-07-24 12:43:47.7,553
2015-07-24 12:43:47.8,503
2015-07-24 12:43:47.8,446
2015-07-24 12:43:47.9,410
2015-07-24 12:43:47.9,392
2015-07-24 12:43:48.0,377
2015-07-24 12:43:48.0,367
2015-07-24 12:43:48.1,349
2015-07-24 12:43:48.1,352
2015-07-24 12:43:48.2,352
2015-07-24 12:43:48.2,337
2015-07-24 12:43:48.3,341
2015-07-24 12:43:48.3,341
2015-07-24 12:43:48.4,340
2015-07-24 12:43:48.4,352
2015-07-24 12:43:48.5,447
2015-07-24 12:43:48.5,589
2015-07-24 12:43:48.6,560
2015-07-24 12:43:48.6,560
2015-07-24 12:43:48.7,554
2015-07-24 12:43:48.7,516
2015-07-24 12:43:48.8,461
2015-07-24 12:43:48.8,446
2015-07-24 12:43:48.9,436
2015-07-24 12:43:48.9,404
2015-07-24 12:43:49.0,385
2015-07-24 12:43:49.0,371
2015-07-24 12:43:49.1,356
2015-07-24 12:43:49.1,332
2015-07-24 12:43:49.2,347
2015-07-24 12:43:49.2,366
2015-07-24 12:43:49.3,356
2015-07-24 12:43:49.3,334
2015-07-24 12:43:49.4,320
2015-07-24 12:43:49.4,426
2015-07-24 12:43:49.5,582
2015-07-24 12:43:49.5,559
2015-07-24 12:43:49.6,560
2015-07-24 12:43:49.6,539
2015-07-24 12:43:49.7,517
2015-07-24 12:43:49.7,513
2015-07-24 12:43:49.8,514
2015-07-24 12:43:49.8,461
2015-07-24 12:43:49.9,368
2015-07-24 12:43:49.9,280
2015-07-24 12:43:50.0,215
2015-07-24 12:43:50.0,197
2015-07-24 12:43:50.1,193
2015-07-24 12:43:50.1,193
2015-07-24 12:43:50.2,180
2015-07-24 12:43:50.2,187
2015-07-24 12:43:50.3,214
2015-07-24 12:43:50.3,271
2015-07-24 12:43:50.4,339
2015-07-24 12:43:50.4,384
2015-07-24 12:43:50.5,388
2015-07-24 12:43:50.5,371
2015-07-24 12:43:50.6,388
2015-07-24 12:43:50.6,403
2015-07-24 12:43:50.7,384
2015-07-24 12:43:50.7,352
2015-07-24 12:43:50.8,339
2015-07-24 12:43:50.8,338
2015-07-24 12:43:50.9,328
2015-07-24 12:43:50.9,343
2015-07-24 12:43:51.0,359
2015-07-24 12:43:51.0,378
2015-07-24 12:43:51.1,405
2015-07-24 12:43:51.1,456
2015-07-24 12:43:51.2,513
2015-07-24 12:43:51.2,520
2015-07-24 12:43:51.3,525
2015-07-24 12:43:51.3,508
2015-07-24 12:43:51.4,471
2015-07-24 12:43:51.4,439
2015-07-24 12:43:51.5,457
2015-07-24 12:43:51.5,455
2015-07-24 12:43:51.6,423
2015-07-24 12:43:51.6,413
2015-07-24 12:43:51.7,405
2015-07-24 12:43:51.7,405
2015-07-24 12:43:51.8,393
2015-07-24 12:43:51.8,398
2015-07-24 12:43:51.9,409
2015-07-24 12:43:51.9,437
2015-07-24 12:43:52.0,494
2015-07-24 12:43:52.0,528
2015-07-24 12:43:52.1,555
2015-07-24 12:43:52.1,531
2015-07-24 12:43:52.2,502
2015-07-24 12:43:52.2,472
2015-07-24 12:43:52.3,443
2015-07-24 12:43:52.3,446
2015-07-24 12:43:52.4,444
2015-07-24 12:43:52.4,431
2015-07-24 12:43:52.5,408
2015-07-24 12:43:52.5,411
2015-07-24 12:43:52.6,414
2015-07-24 12:43:52.7,400
2015-07-24 12:43:52.7,411
2015-07-24 12:43:52.7,465
2015-07-24 12:43:52.8,541
2015-07-24 12:43:52.9,560
2015-07-24 12:43:52.9,560
2015-07-24 12:43:53.0,552
2015-07-24 12:43:53.0,524
2015-07-24 12:43:53.1,506
2015-07-24 12:43:53.1,493
2015-07-24 12:43:53.2,475
2015-07-24 12:43:53.2,445
2015-07-24 12:43:53.3,433
2015-07-24 12:43:53.3,427
2015-07-24 12:43:53.4,425
2015-07-24 12:43:53.4,403
2015-07-24 12:43:53.5,378
2015-07-24 12:43:53.5,363
2015-07-24 12:43:53.6,375
2015-07-24 12:43:53.6,451
2015-07-24 12:43:53.7,510
2015-07-24 12:43:53.7,497
2015-07-24 12:43:53.8,469
2015-07-24 12:43:53.8,435
2015-07-24 12:43:53.9,418
2015-07-24 12:43:53.9,401
2015-07-24 12:43:54.0,397
2015-07-24 12:43:54.0,374
2015-07-24 12:43:54.1,339
2015-07-24 12:43:54.1,340
2015-07-24 12:43:54.2,377
2015-07-24 12:43:54.2,399
2015-07-24 12:43:54.3,358
2015-07-24 12:43:54.3,317
2015-07-24 12:43:54.4,300
2015-07-24 12:43:54.4,326
2015-07-24 12:43:54.5,414
2015-07-24 12:43:54.5,481
2015-07-24 12:43:54.6,488
2015-07-24 12:43:54.6,460
2015-07-24 12:43:54.7,453
2015-07-24 12:43:54.7,428
2015-07-24 12:43:54.8,391
2015-07-24 12:43:54.8,385
2015-07-24 12:43:54.9,374
2015-07-24 12:43:54.9,370
2015-07-24 12:43:55.0,353
2015-07-24 12:43:55.0,353
2015-07-24 12:43:55.1,357
2015-07-24 12:43:55.1,359
2015-07-24 12:43:55.2,377
2015-07-24 12:43:55.2,378
2015-07-24 12:43:55.3,426
2015-07-24 12:43:55.3,509
2015-07-24 12:43:55.4,561
2015-07-24 12:43:55.4,558
2015-07-24 12:43:55.5,525
2015-07-24 12:43:55.5,492
2015-07-24 12:43:55.6,440
2015-07-24 12:43:55.6,430
2015-07-24 12:43:55.7,405
2015-07-24 12:43:55.7,396
2015-07-24 12:43:55.8,411
2015-07-24 12:43:55.8,437
2015-07-24 12:43:55.9,404
2015-07-24 12:43:55.9,395
2015-07-24 12:43:56.0,364
2015-07-24 12:43:56.0,342
2015-07-24 12:43:56.1,410
2015-07-24 12:43:56.1,492
2015-07-24 12:43:56.2,522
2015-07-24 12:43:56.2,486
2015-07-24 12:43:56.3,444
2015-07-24 12:43:56.3,422
2015-07-24 12:43:56.4,404
2015-07-24 12:43:56.4,405
2015-07-24 12:43:56.5,406
2015-07-24 12:43:56.5,388
2015-07-24 12:43:56.6,362
2015-07-24 12:43:56.6,354
2015-07-24 12:43:56.7,354
2015-07-24 12:43:56.7,337
2015-07-24 12:43:56.8,345
2015-07-24 12:43:56.8,394
2015-07-24 12:43:56.9,473
2015-07-24 12:43:56.9,519
2015-07-24 12:43:57.0,531
2015-07-24 12:43:57.0,493
2015-07-24 12:43:57.1,441
2015-07-24 12:43:57.1,417
2015-07-24 12:43:57.2,406
2015-07-24 12:43:57.2,394
2015-07-24 12:43:57.3,369
2015-07-24 12:43:57.3,371
2015-07-24 12:43:57.4,385
2015-07-24 12:43:57.4,382
2015-07-24 12:43:57.5,359
2015-07-24 12:43:57.5,344
2015-07-24 12:43:57.6,344
2015-07-24 12:43:57.6,342
2015-07-24 12:43:57.7,396
2015-07-24 12:43:57.7,481
2015-07-24 12:43:57.8,519
2015-07-24 12:43:57.8,529
2015-07-24 12:43:57.9,515
2015-07-24 12:43:57.9,493
2015-07-24 12:43:58.0,441
2015-07-24 12:43:58.0,425
2015-07-24 12:43:58.1,429
2015-07-24 12:43:58.1,394
2015-07-24 12:43:58.2,383
2015-07-24 12:43:58.2,402
2015-07-24 12:43:58.3,400
2015-07-24 12:43:58.3,385
2015-07-24 12:43:58.4,398
2015-07-24 12:43:58.4,426
2015-07-24 12:43:58.5,413
2015-07-24 12:43:58.5,436
2015-07-24 12:43:58.6,527
2015-07-24 12:43:58.6,559
2015-07-24 12:43:58.7,559
2015-07-24 12:43:58.7,558
2015-07-24 12:43:58.8,537
2015-07-24 12:43:58.8,493
2015-07-24 12:43:58.9,446
2015-07-24 12:43:58.9,426
2015-07-24 12:43:59.0,421
2015-07-24 12:43:59.0,380
2015-07-24 12:43:59.1,365
2015-07-24 12:43:59.1,355
2015-07-24 12:43:59.2,350
2015-07-24 12:43:59.2,355
2015-07-24 12:43:59.3,339
2015-07-24 12:43:59.3,347
2015-07-24 12:43:59.4,315
2015-07-24 12:43:59.4,359
2015-07-24 12:43:59.5,445
2015-07-24 12:43:59.5,502
2015-07-24 12:43:59.6,489
2015-07-24 12:43:59.6,447
2015-07-24 12:43:59.7,417
2015-07-24 12:43:59.7,404
2015-07-24 12:43:59.8,411
2015-07-24 12:43:59.8,404
2015-07-24 12:43:59.9,396
2015-07-24 12:43:59.9,390
2015-07-24 12:44:00.0,383
2015-07-24 12:44:00.0,383
2015-07-24 12:44:00.1,369
2015-07-24 12:44:00.1,394
2015-07-24 12:44:00.2,409
2015-07-24 12:44:00.2,426
2015-07-24 12:44:00.3,395
2015-07-24 12:44:00.3,434
2015-07-24 12:44:00.4,521
2015-07-24 12:44:00.4,559
2015-07-24 12:44:00.5,551
2015-07-24 12:44:00.5,508
2015-07-24 12:44:00.6,452
2015-07-24 12:44:00.6,434
2015-07-24 12:44:00.7,430
2015-07-24 12:44:00.8,414
2015-07-24 12:44:00.8,377
2015-07-24 12:44:00.9,373
2015-07-24 12:44:00.9,367
2015-07-24 12:44:01.0,365
2015-07-24 12:44:01.0,351
2015-07-24 12:44:01.1,356
2015-07-24 12:44:01.1,351
2015-07-24 12:44:01.2,343
2015-07-24 12:44:01.2,350
2015-07-24 12:44:01.3,369
2015-07-24 12:44:01.3,433
2015-07-24 12:44:01.4,517
2015-07-24 12:44:01.4,559
2015-07-24 12:44:01.5,551
2015-07-24 12:44:01.5,482
2015-07-24 12:44:01.6,440
2015-07-24 12:44:01.6,432
2015-07-24 12:44:01.7,425
2015-07-24 12:44:01.7,405
2015-07-24 12:44:01.8,412
2015-07-24 12:44:01.8,413
2015-07-24 12:44:01.9,379
2015-07-24 12:44:01.9,345
2015-07-24 12:44:02.0,333
2015-07-24 12:44:02.0,328
2015-07-24 12:44:02.1,324
2015-07-24 12:44:02.1,345
2015-07-24 12:44:02.2,343
2015-07-24 12:44:02.2,346
2015-07-24 12:44:02.3,430
2015-07-24 12:44:02.3,555
2015-07-24 12:44:02.4,560
2015-07-24 12:44:02.4,537
2015-07-24 12:44:02.5,482
2015-07-24 12:44:02.5,410
2015-07-24 12:44:02.6,381
2015-07-24 12:44:02.6,384
2015-07-24 12:44:02.7,380
2015-07-24 12:44:02.7,365
2015-07-24 12:44:02.8,342
2015-07-24 12:44:02.8,346
2015-07-24 12:44:02.9,350
2015-07-24 12:44:02.9,341
2015-07-24 12:44:03.0,353
2015-07-24 12:44:03.0,355
2015-07-24 12:44:03.1,361
2015-07-24 12:44:03.1,355
2015-07-24 12:44:03.2,381
2015-07-24 12:44:03.2,461
2015-07-24 12:44:03.3,536
2015-07-24 12:44:03.3,559
2015-07-24 12:44:03.4,540
2015-07-24 12:44:03.4,499
2015-07-24 12:44:03.5,449
2015-07-24 12:44:03.5,443
2015-07-24 12:44:03.6,436
2015-07-24 12:44:03.6,435
2015-07-24 12:44:03.7,407
2015-07-24 12:44:03.7,388
2015-07-24 12:44:03.8,377
2015-07-24 12:44:03.8,361
2015-07-24 12:44:03.9,365
2015-07-24 12:44:03.9,368
2015-07-24 12:44:04.0,369
2015-07-24 12:44:04.0,366
2015-07-24 12:44:04.1,365
2015-07-24 12:44:04.1,385
2015-07-24 12:44:04.2,454
2015-07-24 12:44:04.2,549
2015-07-24 12:44:04.3,559
2015-07-24 12:44:04.3,542
2015-07-24 12:44:04.4,513
2015-07-24 12:44:04.4,479
2015-07-24 12:44:04.5,447
2015-07-24 12:44:04.5,426
2015-07-24 12:44:04.6,425
2015-07-24 12:44:04.6,408
2015-07-24 12:44:04.7,386
2015-07-24 12:44:04.7,379
2015-07-24 12:44:04.8,380
2015-07-24 12:44:04.8,386
2015-07-24 12:44:04.9,356
2015-07-24 12:44:04.9,335
2015-07-24 12:44:05.0,327
2015-07-24 12:44:05.0,348
2015-07-24 12:44:05.1,396
2015-07-24 12:44:05.1,460
2015-07-24 12:44:05.2,486
2015-07-24 12:44:05.2,456
2015-07-24 12:44:05.3,437
2015-07-24 12:44:05.3,400
2015-07-24 12:44:05.4,414
2015-07-24 12:44:05.4,390
2015-07-24 12:44:05.5,385
2015-07-24 12:44:05.5,378
2015-07-24 12:44:05.6,367
2015-07-24 12:44:05.6,374
2015-07-24 12:44:05.7,379
2015-07-24 12:44:05.7,387
2015-07-24 12:44:05.8,380
2015-07-24 12:44:05.8,385
2015-07-24 12:44:05.9,383
2015-07-24 12:44:05.9,387
2015-07-24 12:44:06.0,454
2015-07-24 12:44:06.0,521
2015-07-24 12:44:06.1,558
2015-07-24 12:44:06.1,537
2015-07-24 12:44:06.2,505
2015-07-24 12:44:06.2,452
2015-07-24 12:44:06.3,421
2015-07-24 12:44:06.3,417
2015-07-24 12:44:06.4,433
2015-07-24 12:44:06.4,416
2015-07-24 12:44:06.5,375
2015-07-24 12:44:06.5,372
2015-07-24 12:44:06.6,373
2015-07-24 12:44:06.6,378
2015-07-24 12:44:06.7,377
2015-07-24 12:44:06.7,381
2015-07-24 12:44:06.8,363
2015-07-24 12:44:06.8,347
2015-07-24 12:44:06.9,393
2015-07-24 12:44:06.9,503
2015-07-24 12:44:07.0,543
2015-07-24 12:44:07.0,552
2015-07-24 12:44:07.1,522
2015-07-24 12:44:07.1,479
2015-07-24 12:44:07.2,441
2015-07-24 12:44:07.2,432
2015-07-24 12:44:07.3,422
2015-07-24 12:44:07.3,396
2015-07-24 12:44:07.4,387
2015-07-24 12:44:07.4,380
2015-07-24 12:44:07.5,374
2015-07-24 12:44:07.5,362
2015-07-24 12:44:07.6,388
2015-07-24 12:44:07.6,414
2015-07-24 12:44:07.7,403
2015-07-24 12:44:07.7,407
2015-07-24 12:44:07.8,386
2015-07-24 12:44:07.8,390
2015-07-24 12:44:07.9,402
2015-07-24 12:44:07.9,466
2015-07-24 12:44:08.0,522
2015-07-24 12:44:08.0,529
2015-07-24 12:44:08.1,511
2015-07-24 12:44:08.1,479
2015-07-24 12:44:08.2,459
2015-07-24 12:44:08.2,443
2015-07-24 12:44:08.3,463
2015-07-24 12:44:08.3,459
2015-07-24 12:44:08.4,426
2015-07-24 12:44:08.4,384
2015-07-24 12:44:08.5,361
2015-07-24 12:44:08.6,354
2015-07-24 12:44:08.6,342
2015-07-24 12:44:08.7,346
2015-07-24 12:44:08.7,346
2015-07-24 12:44:08.8,345
2015-07-24 12:44:08.8,359
2015-07-24 12:44:08.9,425
2015-07-24 12:44:08.9,501
2015-07-24 12:44:09.0,527
2015-07-24 12:44:09.0,530
2015-07-24 12:44:09.1,496
2015-07-24 12:44:09.1,450
2015-07-24 12:44:09.2,422
2015-07-24 12:44:09.2,407
2015-07-24 12:44:09.3,390
2015-07-24 12:44:09.3,360
2015-07-24 12:44:09.4,351
2015-07-24 12:44:09.4,338
2015-07-24 12:44:09.5,331
2015-07-24 12:44:09.5,321
2015-07-24 12:44:09.6,326
2015-07-24 12:44:09.6,333
2015-07-24 12:44:09.7,352
2015-07-24 12:44:09.7,369
2015-07-24 12:44:09.8,367
2015-07-24 12:44:09.8,397
2015-07-24 12:44:09.9,461
2015-07-24 12:44:09.9,518
2015-07-24 12:44:10.0,520
2015-07-24 12:44:10.0,478
2015-07-24 12:44:10.1,452
2015-07-24 12:44:10.1,441
2015-07-24 12:44:10.2,433
2015-07-24 12:44:10.2,409
2015-07-24 12:44:10.3,395
2015-07-24 12:44:10.3,408
2015-07-24 12:44:10.4,410
2015-07-24 12:44:10.4,377
2015-07-24 12:44:10.5,358
2015-07-24 12:44:10.5,352
2015-07-24 12:44:10.6,346
2015-07-24 12:44:10.6,364
2015-07-24 12:44:10.7,369
2015-07-24 12:44:10.7,367
2015-07-24 12:44:10.8,427
2015-07-24 12:44:10.8,513
2015-07-24 12:44:10.9,558
2015-07-24 12:44:10.9,526
2015-07-24 12:44:11.0,489
2015-07-24 12:44:11.0,443
2015-07-24 12:44:11.1,410
2015-07-24 12:44:11.1,409
2015-07-24 12:44:11.2,402
2015-07-24 12:44:11.2,391
2015-07-24 12:44:11.3,368
2015-07-24 12:44:11.3,368
2015-07-24 12:44:11.4,380
2015-07-24 12:44:11.4,397
2015-07-24 12:44:11.5,406
2015-07-24 12:44:11.5,381
2015-07-24 12:44:11.6,368
2015-07-24 12:44:11.6,357
2015-07-24 12:44:11.7,375
2015-07-24 12:44:11.7,428
2015-07-24 12:44:11.8,489
2015-07-24 12:44:11.8,550
2015-07-24 12:44:11.9,556
2015-07-24 12:44:11.9,518
2015-07-24 12:44:12.0,458
2015-07-24 12:44:12.0,443
2015-07-24 12:44:12.1,440
2015-07-24 12:44:12.1,418
2015-07-24 12:44:12.2,410
2015-07-24 12:44:12.2,399
2015-07-24 12:44:12.3,403
2015-07-24 12:44:12.3,378
2015-07-24 12:44:12.4,401
2015-07-24 12:44:12.4,413
2015-07-24 12:44:12.5,379
2015-07-24 12:44:12.5,371
2015-07-24 12:44:12.6,368
2015-07-24 12:44:12.6,376
2015-07-24 12:44:12.7,410
2015-07-24 12:44:12.7,499
2015-07-24 12:44:12.8,566
2015-07-24 12:44:12.8,559
2015-07-24 12:44:12.9,536
2015-07-24 12:44:12.9,499
2015-07-24 12:44:13.0,451
2015-07-24 12:44:13.0,421
2015-07-24 12:44:13.1,417
2015-07-24 12:44:13.1,404
2015-07-24 12:44:13.2,400
2015-07-24 12:44:13.2,390
2015-07-24 12:44:13.3,374
2015-07-24 12:44:13.3,366
2015-07-24 12:44:13.4,353
2015-07-24 12:44:13.4,359
2015-07-24 12:44:13.5,359
2015-07-24 12:44:13.5,355
2015-07-24 12:44:13.6,361
2015-07-24 12:44:13.6,412
2015-07-24 12:44:13.7,498
2015-07-24 12:44:13.7,563
2015-07-24 12:44:13.8,559
2015-07-24 12:44:13.8,541
2015-07-24 12:44:13.9,498
2015-07-24 12:44:13.9,443
2015-07-24 12:44:14.0,434
2015-07-24 12:44:14.0,417
2015-07-24 12:44:14.1,395
2015-07-24 12:44:14.1,390
2015-07-24 12:44:14.2,387
2015-07-24 12:44:14.2,377
2015-07-24 12:44:14.3,364
2015-07-24 12:44:14.3,367
2015-07-24 12:44:14.4,373
2015-07-24 12:44:14.4,337
2015-07-24 12:44:14.5,330
2015-07-24 12:44:14.5,342
2015-07-24 12:44:14.6,394
2015-07-24 12:44:14.6,477
2015-07-24 12:44:14.7,533
2015-07-24 12:44:14.7,540
2015-07-24 12:44:14.8,492
2015-07-24 12:44:14.8,450
2015-07-24 12:44:14.9,437
2015-07-24 12:44:14.9,430
2015-07-24 12:44:15.0,408
2015-07-24 12:44:15.0,398
2015-07-24 12:44:15.1,385
2015-07-24 12:44:15.1,376
2015-07-24 12:44:15.2,400
2015-07-24 12:44:15.2,407
2015-07-24 12:44:15.3,392
2015-07-24 12:44:15.3,349
2015-07-24 12:44:15.4,383
2015-07-24 12:44:15.4,376
2015-07-24 12:44:15.5,368
2015-07-24 12:44:15.5,443
2015-07-24 12:44:15.6,522
2015-07-24 12:44:15.6,547
2015-07-24 12:44:15.7,521
2015-07-24 12:44:15.7,471
2015-07-24 12:44:15.8,442
2015-07-24 12:44:15.8,431
2015-07-24 12:44:15.9,440
2015-07-24 12:44:15.9,427
2015-07-24 12:44:16.0,407
2015-07-24 12:44:16.0,379
2015-07-24 12:44:16.1,374
2015-07-24 12:44:16.1,371
2015-07-24 12:44:16.2,362
2015-07-24 12:44:16.2,369
2015-07-24 12:44:16.3,364
2015-07-24 12:44:16.4,363
2015-07-24 12:44:16.4,393
2015-07-24 12:44:16.4,448
2015-07-24 12:44:16.5,556
2015-07-24 12:44:16.6,560
2015-07-24 12:44:16.6,558
2015-07-24 12:44:16.6,511
2015-07-24 12:44:16.7,464
2015-07-24 12:44:16.8,422
2015-07-24 12:44:16.8,416
2015-07-24 12:44:16.9,394
2015-07-24 12:44:16.9,333
2015-07-24 12:44:17.0,316
2015-07-24 12:44:17.0,315
2015-07-24 12:44:17.1,327
2015-07-24 12:44:17.1,339
2015-07-24 12:44:17.2,372
2015-07-24 12:44:17.2,390
2015-07-24 12:44:17.3,386
2015-07-24 12:44:17.3,381
2015-07-24 12:44:17.4,377
2015-07-24 12:44:17.4,425
2015-07-24 12:44:17.5,506
2015-07-24 12:44:17.5,560
2015-07-24 12:44:17.6,544
2015-07-24 12:44:17.6,509
2015-07-24 12:44:17.7,491
2015-07-24 12:44:17.7,443
2015-07-24 12:44:17.8,417
2015-07-24 12:44:17.8,404
2015-07-24 12:44:17.9,397
2015-07-24 12:44:17.9,378
2015-07-24 12:44:18.0,358
2015-07-24 12:44:18.0,335
2015-07-24 12:44:18.1,327
2015-07-24 12:44:18.1,340
2015-07-24 12:44:18.2,321
2015-07-24 12:44:18.2,318
2015-07-24 12:44:18.3,320
2015-07-24 12:44:18.3,347
2015-07-24 12:44:18.4,396
2015-07-24 12:44:18.4,486
2015-07-24 12:44:18.5,533
2015-07-24 12:44:18.5,520
2015-07-24 12:44:18.6,482
2015-07-24 12:44:18.6,455
2015-07-24 12:44:18.7,450
2015-07-24 12:44:18.7,418
2015-07-24 12:44:18.8,401
2015-07-24 12:44:18.8,399
2015-07-24 12:44:18.9,372
2015-07-24 12:44:18.9,393
2015-07-24 12:44:19.0,366
2015-07-24 12:44:19.0,355
2015-07-24 12:44:19.1,332
2015-07-24 12:44:19.1,349
2015-07-24 12:44:19.2,365
2015-07-24 12:44:19.2,385
2015-07-24 12:44:19.3,389
2015-07-24 12:44:19.3,385
2015-07-24 12:44:19.4,458
2015-07-24 12:44:19.4,511
2015-07-24 12:44:19.5,533
2015-07-24 12:44:19.5,520
2015-07-24 12:44:19.6,466
2015-07-24 12:44:19.6,440
2015-07-24 12:44:19.7,433
2015-07-24 12:44:19.7,436
2015-07-24 12:44:19.8,419
2015-07-24 12:44:19.8,425
2015-07-24 12:44:19.9,396
2015-07-24 12:44:19.9,352
2015-07-24 12:44:20.0,347
2015-07-24 12:44:20.0,347
2015-07-24 12:44:20.1,346
2015-07-24 12:44:20.1,338
2015-07-24 12:44:20.2,347
2015-07-24 12:44:20.2,351
2015-07-24 12:44:20.3,343
2015-07-24 12:44:20.3,374
2015-07-24 12:44:20.4,455
2015-07-24 12:44:20.4,559
2015-07-24 12:44:20.5,559
2015-07-24 12:44:20.5,547
2015-07-24 12:44:20.6,514
2015-07-24 12:44:20.6,457
2015-07-24 12:44:20.7,445
2015-07-24 12:44:20.7,447
2015-07-24 12:44:20.8,432
2015-07-24 12:44:20.8,405
2015-07-24 12:44:20.9,397
2015-07-24 12:44:20.9,392
2015-07-24 12:44:21.0,374
2015-07-24 12:44:21.0,377
2015-07-24 12:44:21.1,373
2015-07-24 12:44:21.1,366
2015-07-24 12:44:21.2,351
2015-07-24 12:44:21.2,362
2015-07-24 12:44:21.3,374
2015-07-24 12:44:21.3,401
2015-07-24 12:44:21.4,501
2015-07-24 12:44:21.4,560
2015-07-24 12:44:21.5,553
2015-07-24 12:44:21.5,512
2015-07-24 12:44:21.6,463
2015-07-24 12:44:21.6,434
2015-07-24 12:44:21.7,422
2015-07-24 12:44:21.7,410
2015-07-24 12:44:21.8,397
2015-07-24 12:44:21.8,385
2015-07-24 12:44:21.9,378
2015-07-24 12:44:21.9,410
2015-07-24 12:44:22.0,409
2015-07-24 12:44:22.0,383
2015-07-24 12:44:22.1,373
2015-07-24 12:44:22.1,369
2015-07-24 12:44:22.2,366
2015-07-24 12:44:22.2,355
2015-07-24 12:44:22.3,369
2015-07-24 12:44:22.3,403
2015-07-24 12:44:22.4,477
2015-07-24 12:44:22.4,536
2015-07-24 12:44:22.5,559
2015-07-24 12:44:22.5,559
2015-07-24 12:44:22.6,533
2015-07-24 12:44:22.6,525
2015-07-24 12:44:22.7,506
2015-07-24 12:44:22.7,486
2015-07-24 12:44:22.8,448
2015-07-24 12:44:22.8,418
2015-07-24 12:44:22.9,394
2015-07-24 12:44:22.9,364
2015-07-24 12:44:23.0,346
2015-07-24 12:44:23.0,366
2015-07-24 12:44:23.1,339
2015-07-24 12:44:23.1,300
2015-07-24 12:44:23.2,298
2015-07-24 12:44:23.2,306
2015-07-24 12:44:23.3,341
2015-07-24 12:44:23.3,390
2015-07-24 12:44:23.4,432
2015-07-24 12:44:23.4,484
2015-07-24 12:44:23.5,484
2015-07-24 12:44:23.5,472
2015-07-24 12:44:23.6,440
2015-07-24 12:44:23.6,400
2015-07-24 12:44:23.7,392
2015-07-24 12:44:23.7,414
2015-07-24 12:44:23.8,396
2015-07-24 12:44:23.8,353
2015-07-24 12:44:23.9,330
2015-07-24 12:44:23.9,327
2015-07-24 12:44:24.0,317
2015-07-24 12:44:24.0,326
2015-07-24 12:44:24.1,334
2015-07-24 12:44:24.1,338
2015-07-24 12:44:24.2,339
2015-07-24 12:44:24.2,346
2015-07-24 12:44:24.3,366
2015-07-24 12:44:24.3,418
2015-07-24 12:44:24.4,492
2015-07-24 12:44:24.4,527
2015-07-24 12:44:24.5,533
2015-07-24 12:44:24.5,491
2015-07-24 12:44:24.6,458
2015-07-24 12:44:24.7,462
2015-07-24 12:44:24.7,444
2015-07-24 12:44:24.8,421
2015-07-24 12:44:24.8,408
2015-07-24 12:44:24.9,402
2015-07-24 12:44:24.9,376
2015-07-24 12:44:25.0,376
2015-07-24 12:44:25.0,377
2015-07-24 12:44:25.1,369
2015-07-24 12:44:25.1,377
2015-07-24 12:44:25.2,385
2015-07-24 12:44:25.2,384
2015-07-24 12:44:25.3,395
2015-07-24 12:44:25.3,465
2015-07-24 12:44:25.4,556
2015-07-24 12:44:25.4,560
2015-07-24 12:44:25.5,561
2015-07-24 12:44:25.5,555
2015-07-24 12:44:25.6,530
2015-07-24 12:44:25.6,457
2015-07-24 12:44:25.7,433
2015-07-24 12:44:25.7,413
2015-07-24 12:44:25.8,403
2015-07-24 12:44:25.8,414
2015-07-24 12:44:25.9,399
2015-07-24 12:44:25.9,365
2015-07-24 12:44:26.0,341
2015-07-24 12:44:26.0,338
2015-07-24 12:44:26.1,336
2015-07-24 12:44:26.1,329
2015-07-24 12:44:26.2,376
2015-07-24 12:44:26.2,446
2015-07-24 12:44:26.3,496
2015-07-24 12:44:26.3,482
2015-07-24 12:44:26.4,457
2015-07-24 12:44:26.4,451
2015-07-24 12:44:26.5,428
2015-07-24 12:44:26.5,391
2015-07-24 12:44:26.6,394
2015-07-24 12:44:26.6,365
2015-07-24 12:44:26.7,323
2015-07-24 12:44:26.7,338
2015-07-24 12:44:26.8,350
2015-07-24 12:44:26.8,333
2015-07-24 12:44:26.9,329
2015-07-24 12:44:26.9,329
2015-07-24 12:44:27.0,334
2015-07-24 12:44:27.0,347
2015-07-24 12:44:27.1,412
2015-07-24 12:44:27.1,470
2015-07-24 12:44:27.2,492
2015-07-24 12:44:27.2,483
2015-07-24 12:44:27.3,455
2015-07-24 12:44:27.3,438
2015-07-24 12:44:27.4,448
2015-07-24 12:44:27.4,473
2015-07-24 12:44:27.5,454
2015-07-24 12:44:27.5,427
2015-07-24 12:44:27.6,414
2015-07-24 12:44:27.6,390
2015-07-24 12:44:27.7,380
2015-07-24 12:44:27.7,371
2015-07-24 12:44:27.8,383
2015-07-24 12:44:27.8,387
2015-07-24 12:44:27.9,389
2015-07-24 12:44:27.9,402
2015-07-24 12:44:28.0,466
2015-07-24 12:44:28.0,514
2015-07-24 12:44:28.1,510
2015-07-24 12:44:28.1,487
2015-07-24 12:44:28.2,468
2015-07-24 12:44:28.2,456
2015-07-24 12:44:28.3,442
2015-07-24 12:44:28.3,441
2015-07-24 12:44:28.4,431
2015-07-24 12:44:28.4,408
2015-07-24 12:44:28.5,406
2015-07-24 12:44:28.5,404
2015-07-24 12:44:28.6,400
2015-07-24 12:44:28.6,387
2015-07-24 12:44:28.7,397
2015-07-24 12:44:28.7,412
2015-07-24 12:44:28.8,415
2015-07-24 12:44:28.8,436
2015-07-24 12:44:28.9,450
2015-07-24 12:44:28.9,482
2015-07-24 12:44:29.0,497
2015-07-24 12:44:29.0,500
2015-07-24 12:44:29.1,477
2015-07-24 12:44:29.1,448
2015-07-24 12:44:29.2,448
2015-07-24 12:44:29.2,458
2015-07-24 12:44:29.3,438
2015-07-24 12:44:29.3,412
2015-07-24 12:44:29.4,400
2015-07-24 12:44:29.4,390
2015-07-24 12:44:29.5,378
2015-07-24 12:44:29.5,384
2015-07-24 12:44:29.6,385
2015-07-24 12:44:29.6,386
2015-07-24 12:44:29.7,375
2015-07-24 12:44:29.7,378
2015-07-24 12:44:29.8,387
2015-07-24 12:44:29.8,425
2015-07-24 12:44:29.9,491
2015-07-24 12:44:29.9,534
2015-07-24 12:44:30.0,528
2015-07-24 12:44:30.0,486
2015-07-24 12:44:30.1,447
2015-07-24 12:44:30.1,437
2015-07-24 12:44:30.2,425
2015-07-24 12:44:30.2,425
2015-07-24 12:44:30.3,413
2015-07-24 12:44:30.3,405
2015-07-24 12:44:30.4,388
2015-07-24 12:44:30.4,386
2015-07-24 12:44:30.5,406
2015-07-24 12:44:30.5,407
2015-07-24 12:44:30.6,410
2015-07-24 12:44:30.6,407
2015-07-24 12:44:30.7,440
2015-07-24 12:44:30.7,504
2015-07-24 12:44:30.8,557
2015-07-24 12:44:30.8,559
2015-07-24 12:44:30.9,533
2015-07-24 12:44:30.9,498
2015-07-24 12:44:31.0,463
2015-07-24 12:44:31.0,444
2015-07-24 12:44:31.1,422
2015-07-24 12:44:31.1,396
2015-07-24 12:44:31.2,372
2015-07-24 12:44:31.2,374
2015-07-24 12:44:31.3,375
2015-07-24 12:44:31.3,343
2015-07-24 12:44:31.4,345
2015-07-24 12:44:31.4,352
2015-07-24 12:44:31.5,364
2015-07-24 12:44:31.5,386
2015-07-24 12:44:31.6,432
2015-07-24 12:44:31.6,460
2015-07-24 12:44:31.7,476
2015-07-24 12:44:31.7,483
2015-07-24 12:44:31.8,464
2015-07-24 12:44:31.8,469
2015-07-24 12:44:31.9,456
2015-07-24 12:44:31.9,437
2015-07-24 12:44:32.0,380
2015-07-24 12:44:32.0,349
2015-07-24 12:44:32.1,344
2015-07-24 12:44:32.1,364
2015-07-24 12:44:32.2,381
2015-07-24 12:44:32.2,356
2015-07-24 12:44:32.3,336
2015-07-24 12:44:32.3,323
2015-07-24 12:44:32.4,335
2015-07-24 12:44:32.5,359
2015-07-24 12:44:32.5,406
2015-07-24 12:44:32.6,478
2015-07-24 12:44:32.6,503
2015-07-24 12:44:32.7,489
2015-07-24 12:44:32.7,452
2015-07-24 12:44:32.8,437
2015-07-24 12:44:32.8,429
2015-07-24 12:44:32.9,412
2015-07-24 12:44:32.9,412
2015-07-24 12:44:32.9,412
2015-07-24 12:44:33.0,408
2015-07-24 12:44:33.1,390
2015-07-24 12:44:33.1,392
2015-07-24 12:44:33.2,397
2015-07-24 12:44:33.2,384
2015-07-24 12:44:33.3,397
2015-07-24 12:44:33.3,404
2015-07-24 12:44:33.4,426
2015-07-24 12:44:33.4,474
2015-07-24 12:44:33.5,552
2015-07-24 12:44:33.5,560
2015-07-24 12:44:33.6,544
2015-07-24 12:44:33.6,539
2015-07-24 12:44:33.7,531
2015-07-24 12:44:33.7,515
2015-07-24 12:44:33.8,471
2015-07-24 12:44:33.8,442
2015-07-24 12:44:33.9,427
2015-07-24 12:44:33.9,403
2015-07-24 12:44:34.0,399
2015-07-24 12:44:34.0,388
2015-07-24 12:44:34.1,370
2015-07-24 12:44:34.1,340
2015-07-24 12:44:34.2,362
2015-07-24 12:44:34.2,374
2015-07-24 12:44:34.3,374
2015-07-24 12:44:34.3,420
2015-07-24 12:44:34.4,482
2015-07-24 12:44:34.4,498
2015-07-24 12:44:34.5,466
2015-07-24 12:44:34.5,430
2015-07-24 12:44:34.6,402
2015-07-24 12:44:34.6,386
2015-07-24 12:44:34.7,389
2015-07-24 12:44:34.7,381
2015-07-24 12:44:34.8,389
2015-07-24 12:44:34.8,385
2015-07-24 12:44:34.9,373
2015-07-24 12:44:34.9,338
2015-07-24 12:44:35.0,306
2015-07-24 12:44:35.0,310
2015-07-24 12:44:35.1,319
2015-07-24 12:44:35.1,321
2015-07-24 12:44:35.2,312
2015-07-24 12:44:35.2,372
2015-07-24 12:44:35.3,460
2015-07-24 12:44:35.3,510
2015-07-24 12:44:35.4,508
2015-07-24 12:44:35.4,480
2015-07-24 12:44:35.5,456
2015-07-24 12:44:35.5,443
2015-07-24 12:44:35.6,462
2015-07-24 12:44:35.6,457
2015-07-24 12:44:35.7,423
2015-07-24 12:44:35.7,386
2015-07-24 12:44:35.8,370
2015-07-24 12:44:35.8,362
2015-07-24 12:44:35.9,351
2015-07-24 12:44:35.9,357
2015-07-24 12:44:36.0,360
2015-07-24 12:44:36.0,355
2015-07-24 12:44:36.1,352
2015-07-24 12:44:36.1,351
2015-07-24 12:44:36.2,366
2015-07-24 12:44:36.2,412
2015-07-24 12:44:36.3,487
2015-07-24 12:44:36.3,510
2015-07-24 12:44:36.4,490
2015-07-24 12:44:36.4,441
2015-07-24 12:44:36.5,431
2015-07-24 12:44:36.5,410
2015-07-24 12:44:36.6,386
2015-07-24 12:44:36.6,392
2015-07-24 12:44:36.7,402
2015-07-24 12:44:36.7,406
2015-07-24 12:44:36.8,418
2015-07-24 12:44:36.8,439
2015-07-24 12:44:36.9,438
2015-07-24 12:44:36.9,448
2015-07-24 12:44:37.0,465
2015-07-24 12:44:37.0,459
2015-07-24 12:44:37.1,440
2015-07-24 12:44:37.1,426
2015-07-24 12:44:37.2,452
2015-07-24 12:44:37.2,492
2015-07-24 12:44:37.3,527
2015-07-24 12:44:37.3,557
2015-07-24 12:44:37.4,528
2015-07-24 12:44:37.4,469
2015-07-24 12:44:37.5,400
2015-07-24 12:44:37.5,377
2015-07-24 12:44:37.6,360
2015-07-24 12:44:37.6,330
2015-07-24 12:44:37.7,320
2015-07-24 12:44:37.7,324
2015-07-24 12:44:37.8,331
2015-07-24 12:44:37.8,338
2015-07-24 12:44:37.9,331
2015-07-24 12:44:37.9,313
2015-07-24 12:44:38.0,297
2015-07-24 12:44:38.0,308
2015-07-24 12:44:38.1,323
2015-07-24 12:44:38.1,330
2015-07-24 12:44:38.2,358
2015-07-24 12:44:38.2,447
2015-07-24 12:44:38.3,512
2015-07-24 12:44:38.3,508
2015-07-24 12:44:38.4,480
2015-07-24 12:44:38.4,445
2015-07-24 12:44:38.5,432
2015-07-24 12:44:38.5,406
2015-07-24 12:44:38.6,395
2015-07-24 12:44:38.6,396
2015-07-24 12:44:38.7,380
2015-07-24 12:44:38.7,384
2015-07-24 12:44:38.8,404
2015-07-24 12:44:38.8,411
2015-07-24 12:44:38.9,416
2015-07-24 12:44:38.9,395
2015-07-24 12:44:39.0,377
2015-07-24 12:44:39.0,368
2015-07-24 12:44:39.1,400
2015-07-24 12:44:39.1,475
2015-07-24 12:44:39.2,562
2015-07-24 12:44:39.2,557
2015-07-24 12:44:39.3,560
2015-07-24 12:44:39.3,528
2015-07-24 12:44:39.4,476
2015-07-24 12:44:39.4,448
2015-07-24 12:44:39.5,448
2015-07-24 12:44:39.5,443
2015-07-24 12:44:39.6,437
2015-07-24 12:44:39.6,447
2015-07-24 12:44:39.7,413
2015-07-24 12:44:39.7,387
2015-07-24 12:44:39.8,391
2015-07-24 12:44:39.8,382
2015-07-24 12:44:39.9,370
2015-07-24 12:44:39.9,353
2015-07-24 12:44:40.0,359
2015-07-24 12:44:40.0,380
2015-07-24 12:44:40.1,449
2015-07-24 12:44:40.1,517
2015-07-24 12:44:40.2,545
2015-07-24 12:44:40.3,534
2015-07-24 12:44:40.3,477
2015-07-24 12:44:40.3,437
2015-07-24 12:44:40.4,428
2015-07-24 12:44:40.5,424
2015-07-24 12:44:40.5,403
2015-07-24 12:44:40.5,397
2015-07-24 12:44:40.6,416
2015-07-24 12:44:40.7,384
2015-07-24 12:44:40.7,366
2015-07-24 12:44:40.8,376
2015-07-24 12:44:40.8,395
2015-07-24 12:44:40.9,394
2015-07-24 12:44:40.9,377
2015-07-24 12:44:41.0,361
2015-07-24 12:44:41.0,378
2015-07-24 12:44:41.1,442
2015-07-24 12:44:41.1,505
2015-07-24 12:44:41.2,517
2015-07-24 12:44:41.2,484
2015-07-24 12:44:41.3,453
2015-07-24 12:44:41.3,431
2015-07-24 12:44:41.4,419
2015-07-24 12:44:41.4,417
2015-07-24 12:44:41.5,402
2015-07-24 12:44:41.5,393
2015-07-24 12:44:41.6,370
2015-07-24 12:44:41.6,387
2015-07-24 12:44:41.7,369
2015-07-24 12:44:41.7,386
2015-07-24 12:44:41.8,374
2015-07-24 12:44:41.8,358
2015-07-24 12:44:41.9,361
2015-07-24 12:44:41.9,397
2015-07-24 12:44:42.0,478
2015-07-24 12:44:42.0,524
2015-07-24 12:44:42.1,522
2015-07-24 12:44:42.1,538
2015-07-24 12:44:42.2,500
2015-07-24 12:44:42.2,448
2015-07-24 12:44:42.3,393
2015-07-24 12:44:42.3,384
2015-07-24 12:44:42.4,401
2015-07-24 12:44:42.4,396
2015-07-24 12:44:42.5,390
2015-07-24 12:44:42.5,364
2015-07-24 12:44:42.6,346
2015-07-24 12:44:42.6,331
2015-07-24 12:44:42.7,339
2015-07-24 12:44:42.7,343
2015-07-24 12:44:42.8,358
2015-07-24 12:44:42.8,432
2015-07-24 12:44:42.9,499
2015-07-24 12:44:42.9,520
2015-07-24 12:44:43.0,487
2015-07-24 12:44:43.0,458
2015-07-24 12:44:43.1,435
2015-07-24 12:44:43.1,415
2015-07-24 12:44:43.2,415
2015-07-24 12:44:43.2,409
2015-07-24 12:44:43.3,400
2015-07-24 12:44:43.3,379
2015-07-24 12:44:43.4,380
2015-07-24 12:44:43.4,382
2015-07-24 12:44:43.5,370
2015-07-24 12:44:43.5,375
2015-07-24 12:44:43.6,383
2015-07-24 12:44:43.6,426
2015-07-24 12:44:43.7,486
2015-07-24 12:44:43.7,531
2015-07-24 12:44:43.8,548
2015-07-24 12:44:43.8,509
2015-07-24 12:44:43.9,468
2015-07-24 12:44:43.9,421
2015-07-24 12:44:44.0,409
2015-07-24 12:44:44.0,391
2015-07-24 12:44:44.1,392
2015-07-24 12:44:44.1,404
2015-07-24 12:44:44.2,389
2015-07-24 12:44:44.2,367
2015-07-24 12:44:44.3,356
2015-07-24 12:44:44.3,359
2015-07-24 12:44:44.4,363
2015-07-24 12:44:44.4,432
2015-07-24 12:44:44.5,500
2015-07-24 12:44:44.5,513
2015-07-24 12:44:44.6,487
2015-07-24 12:44:44.6,450
2015-07-24 12:44:44.7,430
2015-07-24 12:44:44.7,448
2015-07-24 12:44:44.8,460
2015-07-24 12:44:44.8,407
2015-07-24 12:44:44.9,379
2015-07-24 12:44:44.9,404
2015-07-24 12:44:45.0,387
2015-07-24 12:44:45.0,375
2015-07-24 12:44:45.1,341
2015-07-24 12:44:45.1,338
2015-07-24 12:44:45.2,351
2015-07-24 12:44:45.2,371
2015-07-24 12:44:45.3,417
2015-07-24 12:44:45.3,488
2015-07-24 12:44:45.4,507
2015-07-24 12:44:45.4,467
2015-07-24 12:44:45.5,439
2015-07-24 12:44:45.5,422
2015-07-24 12:44:45.6,419
2015-07-24 12:44:45.6,405
2015-07-24 12:44:45.7,406
2015-07-24 12:44:45.7,404
2015-07-24 12:44:45.8,380
2015-07-24 12:44:45.8,376
2015-07-24 12:44:45.9,373
2015-07-24 12:44:45.9,376
2015-07-24 12:44:46.0,375
2015-07-24 12:44:46.0,417
2015-07-24 12:44:46.1,485
2015-07-24 12:44:46.1,512
2015-07-24 12:44:46.2,504
2015-07-24 12:44:46.2,472
2015-07-24 12:44:46.3,440
2015-07-24 12:44:46.3,441
2015-07-24 12:44:46.4,451
2015-07-24 12:44:46.4,455
2015-07-24 12:44:46.5,432
2015-07-24 12:44:46.5,421
2015-07-24 12:44:46.6,410
2015-07-24 12:44:46.6,376
2015-07-24 12:44:46.7,335
2015-07-24 12:44:46.7,350
2015-07-24 12:44:46.8,372
2015-07-24 12:44:46.8,391
2015-07-24 12:44:46.9,444
2015-07-24 12:44:46.9,527
2015-07-24 12:44:47.0,541
2015-07-24 12:44:47.0,505
2015-07-24 12:44:47.1,469
2015-07-24 12:44:47.1,440
2015-07-24 12:44:47.2,412
2015-07-24 12:44:47.2,399
2015-07-24 12:44:47.3,390
2015-07-24 12:44:47.3,367
2015-07-24 12:44:47.4,338
2015-07-24 12:44:47.4,340
2015-07-24 12:44:47.5,343
2015-07-24 12:44:47.5,344
2015-07-24 12:44:47.6,373
2015-07-24 12:44:47.6,384
2015-07-24 12:44:47.7,398
2015-07-24 12:44:47.7,439
2015-07-24 12:44:47.8,505
2015-07-24 12:44:47.8,523
2015-07-24 12:44:47.9,492
2015-07-24 12:44:47.9,450
2015-07-24 12:44:48.0,439
2015-07-24 12:44:48.1,439
2015-07-24 12:44:48.1,426
2015-07-24 12:44:48.1,396
2015-07-24 12:44:48.2,378
2015-07-24 12:44:48.2,357
2015-07-24 12:44:48.3,356
2015-07-24 12:44:48.3,357
2015-07-24 12:44:48.4,360
2015-07-24 12:44:48.5,360
2015-07-24 12:44:48.5,382
2015-07-24 12:44:48.5,371
2015-07-24 12:44:48.6,367
2015-07-24 12:44:48.7,411
2015-07-24 12:44:48.7,502
2015-07-24 12:44:48.8,522
2015-07-24 12:44:48.8,504
2015-07-24 12:44:48.9,477
2015-07-24 12:44:48.9,442
2015-07-24 12:44:49.0,432
2015-07-24 12:44:49.0,429
2015-07-24 12:44:49.1,423
2015-07-24 12:44:49.1,412
2015-07-24 12:44:49.2,410
2015-07-24 12:44:49.2,402
2015-07-24 12:44:49.3,386
2015-07-24 12:44:49.3,378
2015-07-24 12:44:49.4,373
2015-07-24 12:44:49.4,373
2015-07-24 12:44:49.5,374
2015-07-24 12:44:49.5,364
2015-07-24 12:44:49.6,388
2015-07-24 12:44:49.6,448
2015-07-24 12:44:49.7,505
2015-07-24 12:44:49.7,511
2015-07-24 12:44:49.8,512
2015-07-24 12:44:49.8,508
2015-07-24 12:44:49.9,472
2015-07-24 12:44:49.9,440
2015-07-24 12:44:50.0,423
2015-07-24 12:44:50.0,413
2015-07-24 12:44:50.1,380
2015-07-24 12:44:50.1,390
2015-07-24 12:44:50.2,406
2015-07-24 12:44:50.2,378
2015-07-24 12:44:50.3,367
2015-07-24 12:44:50.3,368
2015-07-24 12:44:50.4,369
2015-07-24 12:44:50.4,362
2015-07-24 12:44:50.5,397
2015-07-24 12:44:50.5,429
2015-07-24 12:44:50.6,462
2015-07-24 12:44:50.6,508
2015-07-24 12:44:50.7,520
2015-07-24 12:44:50.7,496
2015-07-24 12:44:50.8,454
2015-07-24 12:44:50.8,441
2015-07-24 12:44:50.9,437
2015-07-24 12:44:50.9,417
2015-07-24 12:44:51.0,410
2015-07-24 12:44:51.0,411
2015-07-24 12:44:51.1,403
2015-07-24 12:44:51.1,380
2015-07-24 12:44:51.2,380
2015-07-24 12:44:51.2,389
2015-07-24 12:44:51.3,404
2015-07-24 12:44:51.3,383
2015-07-24 12:44:51.4,368
2015-07-24 12:44:51.4,364
2015-07-24 12:44:51.5,370
2015-07-24 12:44:51.5,444
2015-07-24 12:44:51.6,509
2015-07-24 12:44:51.6,515
2015-07-24 12:44:51.7,522
2015-07-24 12:44:51.7,489
2015-07-24 12:44:51.8,445
2015-07-24 12:44:51.8,425
2015-07-24 12:44:51.9,437
2015-07-24 12:44:51.9,435
2015-07-24 12:44:52.0,425
2015-07-24 12:44:52.0,404
2015-07-24 12:44:52.1,380
2015-07-24 12:44:52.1,368
2015-07-24 12:44:52.2,353
2015-07-24 12:44:52.2,359
2015-07-24 12:44:52.3,366
2015-07-24 12:44:52.3,356
2015-07-24 12:44:52.4,363
2015-07-24 12:44:52.4,380
2015-07-24 12:44:52.5,443
2015-07-24 12:44:52.5,492
2015-07-24 12:44:52.6,518
2015-07-24 12:44:52.6,498
2015-07-24 12:44:52.7,451
2015-07-24 12:44:52.7,442
2015-07-24 12:44:52.8,448
2015-07-24 12:44:52.8,453
2015-07-24 12:44:52.9,410
2015-07-24 12:44:52.9,379
2015-07-24 12:44:53.0,368
2015-07-24 12:44:53.0,368
2015-07-24 12:44:53.1,370
2015-07-24 12:44:53.1,373
2015-07-24 12:44:53.2,384
2015-07-24 12:44:53.2,379
2015-07-24 12:44:53.3,374
2015-07-24 12:44:53.3,368
2015-07-24 12:44:53.4,383
2015-07-24 12:44:53.4,444
2015-07-24 12:44:53.5,487
2015-07-24 12:44:53.5,487
2015-07-24 12:44:53.6,464
2015-07-24 12:44:53.6,467
2015-07-24 12:44:53.7,464
2015-07-24 12:44:53.7,446
2015-07-24 12:44:53.8,431
2015-07-24 12:44:53.8,411
2015-07-24 12:44:53.9,383
2015-07-24 12:44:53.9,363
2015-07-24 12:44:54.0,368
2015-07-24 12:44:54.0,370
2015-07-24 12:44:54.1,369
2015-07-24 12:44:54.1,357
2015-07-24 12:44:54.2,363
2015-07-24 12:44:54.2,364
2015-07-24 12:44:54.3,357
2015-07-24 12:44:54.3,395
2015-07-24 12:44:54.4,460
2015-07-24 12:44:54.4,502
2015-07-24 12:44:54.5,488
2015-07-24 12:44:54.5,461
2015-07-24 12:44:54.6,435
2015-07-24 12:44:54.6,404
2015-07-24 12:44:54.7,407
2015-07-24 12:44:54.7,402
2015-07-24 12:44:54.8,397
2015-07-24 12:44:54.8,392
2015-07-24 12:44:54.9,398
2015-07-24 12:44:54.9,350
2015-07-24 12:44:55.0,258
2015-07-24 12:44:55.0,238
2015-07-24 12:44:55.1,260
2015-07-24 12:44:55.1,320
2015-07-24 12:44:55.2,370
2015-07-24 12:44:55.2,390
2015-07-24 12:44:55.3,356
2015-07-24 12:44:55.3,395
2015-07-24 12:44:55.4,496
2015-07-24 12:44:55.4,536
2015-07-24 12:44:55.5,517
2015-07-24 12:44:55.5,460
2015-07-24 12:44:55.6,477
2015-07-24 12:44:55.6,545
2015-07-24 12:44:55.7,560
2015-07-24 12:44:55.7,560
2015-07-24 12:44:55.8,560
2015-07-24 12:44:55.8,552
2015-07-24 12:44:55.9,487
2015-07-24 12:44:55.9,462
2015-07-24 12:44:56.0,476
2015-07-24 12:44:56.0,488
2015-07-24 12:44:56.1,461
2015-07-24 12:44:56.1,407
2015-07-24 12:44:56.2,400
2015-07-24 12:44:56.2,425
2015-07-24 12:44:56.3,497
2015-07-24 12:44:56.4,543
2015-07-24 12:44:56.4,542
2015-07-24 12:44:56.4,516
2015-07-24 12:44:56.5,463
2015-07-24 12:44:56.6,433
2015-07-24 12:44:56.6,401
2015-07-24 12:44:56.6,388
2015-07-24 12:44:56.7,370
2015-07-24 12:44:56.8,341
2015-07-24 12:44:56.8,337
2015-07-24 12:44:56.9,337
2015-07-24 12:44:56.9,344
2015-07-24 12:44:57.0,337
2015-07-24 12:44:57.0,341
2015-07-24 12:44:57.1,341
2015-07-24 12:44:57.1,339
2015-07-24 12:44:57.2,392
2015-07-24 12:44:57.2,429
2015-07-24 12:44:57.3,526
2015-07-24 12:44:57.3,551
2015-07-24 12:44:57.4,560
2015-07-24 12:44:57.4,534
2015-07-24 12:44:57.5,453
2015-07-24 12:44:57.5,413
2015-07-24 12:44:57.6,396
2015-07-24 12:44:57.6,385
2015-07-24 12:44:57.7,363
2015-07-24 12:44:57.7,360
2015-07-24 12:44:57.8,353
2015-07-24 12:44:57.8,352
2015-07-24 12:44:57.9,344
2015-07-24 12:44:57.9,367
2015-07-24 12:44:58.0,351
2015-07-24 12:44:58.0,326
2015-07-24 12:44:58.1,333
2015-07-24 12:44:58.1,345
2015-07-24 12:44:58.2,382
2015-07-24 12:44:58.2,462
2015-07-24 12:44:58.3,532
2015-07-24 12:44:58.3,559
2015-07-24 12:44:58.4,526
2015-07-24 12:44:58.4,492
2015-07-24 12:44:58.5,446
2015-07-24 12:44:58.5,427
2015-07-24 12:44:58.6,406
2015-07-24 12:44:58.6,396
2015-07-24 12:44:58.7,383
2015-07-24 12:44:58.7,362
2015-07-24 12:44:58.8,376
2015-07-24 12:44:58.8,386
2015-07-24 12:44:58.9,380
2015-07-24 12:44:58.9,338
2015-07-24 12:44:59.0,334
2015-07-24 12:44:59.0,340
2015-07-24 12:44:59.1,330
2015-07-24 12:44:59.1,340
2015-07-24 12:44:59.2,375
2015-07-24 12:44:59.2,460
2015-07-24 12:44:59.3,527
2015-07-24 12:44:59.3,558
2015-07-24 12:44:59.4,545
2015-07-24 12:44:59.4,496
2015-07-24 12:44:59.5,451
2015-07-24 12:44:59.5,432
2015-07-24 12:44:59.6,425
2015-07-24 12:44:59.6,427
2015-07-24 12:44:59.7,406
2015-07-24 12:44:59.7,378
2015-07-24 12:44:59.8,354
2015-07-24 12:44:59.8,357
2015-07-24 12:44:59.9,360
2015-07-24 12:44:59.9,359
2015-07-24 12:45:00.0,345
2015-07-24 12:45:00.0,355
2015-07-24 12:45:00.1,360
2015-07-24 12:45:00.1,347
2015-07-24 12:45:00.2,366
2015-07-24 12:45:00.2,416
2015-07-24 12:45:00.3,500
2015-07-24 12:45:00.3,542
2015-07-24 12:45:00.4,559
2015-07-24 12:45:00.4,527
2015-07-24 12:45:00.5,470
2015-07-24 12:45:00.5,439
2015-07-24 12:45:00.6,431
2015-07-24 12:45:00.6,423
2015-07-24 12:45:00.7,405
2015-07-24 12:45:00.7,401
2015-07-24 12:45:00.8,420
2015-07-24 12:45:00.8,408
2015-07-24 12:45:00.9,390
2015-07-24 12:45:00.9,362
2015-07-24 12:45:01.0,360
2015-07-24 12:45:01.0,353
2015-07-24 12:45:01.1,358
2015-07-24 12:45:01.1,362
2015-07-24 12:45:01.2,388
2015-07-24 12:45:01.2,471
2015-07-24 12:45:01.3,532
2015-07-24 12:45:01.3,560
2015-07-24 12:45:01.4,521
2015-07-24 12:45:01.4,494
2015-07-24 12:45:01.5,485
2015-07-24 12:45:01.5,443
2015-07-24 12:45:01.6,408
2015-07-24 12:45:01.6,390
2015-07-24 12:45:01.7,381
2015-07-24 12:45:01.7,376
2015-07-24 12:45:01.8,391
2015-07-24 12:45:01.8,403
2015-07-24 12:45:01.9,364
2015-07-24 12:45:01.9,349
2015-07-24 12:45:02.0,352
2015-07-24 12:45:02.0,351
2015-07-24 12:45:02.1,340
2015-07-24 12:45:02.1,360
2015-07-24 12:45:02.2,422
2015-07-24 12:45:02.2,503
2015-07-24 12:45:02.3,545
2015-07-24 12:45:02.3,549
2015-07-24 12:45:02.4,512
2015-07-24 12:45:02.4,477
2015-07-24 12:45:02.5,473
2015-07-24 12:45:02.5,435
2015-07-24 12:45:02.6,412
2015-07-24 12:45:02.6,393
2015-07-24 12:45:02.7,377
2015-07-24 12:45:02.7,368
2015-07-24 12:45:02.8,352
2015-07-24 12:45:02.8,359
2015-07-24 12:45:02.9,380
2015-07-24 12:45:02.9,368
2015-07-24 12:45:03.0,360
2015-07-24 12:45:03.0,356
2015-07-24 12:45:03.1,353
2015-07-24 12:45:03.1,356
2015-07-24 12:45:03.2,420
2015-07-24 12:45:03.2,508
2015-07-24 12:45:03.3,562
2015-07-24 12:45:03.3,541
2015-07-24 12:45:03.4,516
2015-07-24 12:45:03.4,473
2015-07-24 12:45:03.5,438
2015-07-24 12:45:03.5,439
2015-07-24 12:45:03.6,428
2015-07-24 12:45:03.6,413
2015-07-24 12:45:03.7,391
2015-07-24 12:45:03.7,395
2015-07-24 12:45:03.8,394
2015-07-24 12:45:03.8,382
2015-07-24 12:45:03.9,394
2015-07-24 12:45:03.9,384
2015-07-24 12:45:04.0,369
2015-07-24 12:45:04.0,354
2015-07-24 12:45:04.1,375
2015-07-24 12:45:04.1,450
2015-07-24 12:45:04.2,540
2015-07-24 12:45:04.2,559
2015-07-24 12:45:04.3,538
2015-07-24 12:45:04.3,489
2015-07-24 12:45:04.4,434
2015-07-24 12:45:04.4,428
2015-07-24 12:45:04.5,430
2015-07-24 12:45:04.6,406
2015-07-24 12:45:04.6,392
2015-07-24 12:45:04.6,379
2015-07-24 12:45:04.7,375
2015-07-24 12:45:04.8,379
2015-07-24 12:45:04.8,397
2015-07-24 12:45:04.9,407
2015-07-24 12:45:04.9,361
2015-07-24 12:45:05.0,350
2015-07-24 12:45:05.0,351
2015-07-24 12:45:05.1,420
2015-07-24 12:45:05.1,496
2015-07-24 12:45:05.2,543
2015-07-24 12:45:05.2,556
2015-07-24 12:45:05.3,514
2015-07-24 12:45:05.3,465
2015-07-24 12:45:05.4,433
2015-07-24 12:45:05.4,430
2015-07-24 12:45:05.5,417
2015-07-24 12:45:05.5,401
2015-07-24 12:45:05.6,385
2015-07-24 12:45:05.6,362
2015-07-24 12:45:05.7,360
2015-07-24 12:45:05.7,361
2015-07-24 12:45:05.8,379
2015-07-24 12:45:05.8,386
2015-07-24 12:45:05.9,365
2015-07-24 12:45:05.9,344
2015-07-24 12:45:06.0,360
2015-07-24 12:45:06.0,426
2015-07-24 12:45:06.1,481
2015-07-24 12:45:06.1,523
2015-07-24 12:45:06.2,507
2015-07-24 12:45:06.2,468
2015-07-24 12:45:06.3,434
2015-07-24 12:45:06.3,417
2015-07-24 12:45:06.4,414
2015-07-24 12:45:06.4,405
2015-07-24 12:45:06.5,391
2015-07-24 12:45:06.5,364
2015-07-24 12:45:06.6,355
2015-07-24 12:45:06.6,343
2015-07-24 12:45:06.7,326
2015-07-24 12:45:06.7,332
2015-07-24 12:45:06.8,340
2015-07-24 12:45:06.8,362
2015-07-24 12:45:06.9,410
2015-07-24 12:45:06.9,482
2015-07-24 12:45:07.0,491
2015-07-24 12:45:07.0,443
2015-07-24 12:45:07.1,403
2015-07-24 12:45:07.1,382
2015-07-24 12:45:07.2,363
2015-07-24 12:45:07.2,349
2015-07-24 12:45:07.3,397
2015-07-24 12:45:07.3,425
2015-07-24 12:45:07.4,412
2015-07-24 12:45:07.4,364
2015-07-24 12:45:07.5,344
2015-07-24 12:45:07.5,363
2015-07-24 12:45:07.6,420
2015-07-24 12:45:07.6,588
2015-07-24 12:45:07.7,658
2015-07-24 12:45:07.7,722
2015-07-24 12:45:07.8,725
2015-07-24 12:45:07.8,631
2015-07-24 12:45:07.9,541
2015-07-24 12:45:07.9,547
2015-07-24 12:45:08.0,546
2015-07-24 12:45:08.0,496
2015-07-24 12:45:08.1,438
2015-07-24 12:45:08.1,402
2015-07-24 12:45:08.2,390
2015-07-24 12:45:08.2,381
2015-07-24 12:45:08.3,365
2015-07-24 12:45:08.3,359
2015-07-24 12:45:08.4,395
2015-07-24 12:45:08.4,519
2015-07-24 12:45:08.5,659
2015-07-24 12:45:08.5,740
2015-07-24 12:45:08.6,730
2015-07-24 12:45:08.6,595
2015-07-24 12:45:08.7,557
2015-07-24 12:45:08.7,559
2015-07-24 12:45:08.8,559
2015-07-24 12:45:08.8,514
2015-07-24 12:45:08.9,430
2015-07-24 12:45:08.9,359
2015-07-24 12:45:09.0,298
2015-07-24 12:45:09.0,276
2015-07-24 12:45:09.1,270
2015-07-24 12:45:09.1,264
2015-07-24 12:45:09.2,233
2015-07-24 12:45:09.2,211
2015-07-24 12:45:09.3,224
2015-07-24 12:45:09.3,257
2015-07-24 12:45:09.4,428
2015-07-24 12:45:09.4,600
2015-07-24 12:45:09.5,598
2015-07-24 12:45:09.5,564
2015-07-24 12:45:09.6,559
2015-07-24 12:45:09.6,552
2015-07-24 12:45:09.7,506
2015-07-24 12:45:09.7,433
2015-07-24 12:45:09.8,358
2015-07-24 12:45:09.8,332
2015-07-24 12:45:09.9,284
2015-07-24 12:45:09.9,259
2015-07-24 12:45:10.0,249
2015-07-24 12:45:10.0,233
2015-07-24 12:45:10.1,236
2015-07-24 12:45:10.1,237
2015-07-24 12:45:10.2,236
2015-07-24 12:45:10.2,229
2015-07-24 12:45:10.3,262
2015-07-24 12:45:10.3,369
2015-07-24 12:45:10.4,567
2015-07-24 12:45:10.4,618
2015-07-24 12:45:10.5,607
2015-07-24 12:45:10.5,560
2015-07-24 12:45:10.6,558
2015-07-24 12:45:10.6,543
2015-07-24 12:45:10.7,513
2015-07-24 12:45:10.7,481
2015-07-24 12:45:10.8,475
2015-07-24 12:45:10.8,431
2015-07-24 12:45:10.9,360
2015-07-24 12:45:10.9,301
2015-07-24 12:45:11.0,304
2015-07-24 12:45:11.0,309
2015-07-24 12:45:11.1,271
2015-07-24 12:45:11.1,278
2015-07-24 12:45:11.2,296
2015-07-24 12:45:11.2,321
2015-07-24 12:45:11.3,315
2015-07-24 12:45:11.3,324
2015-07-24 12:45:11.4,398
2015-07-24 12:45:11.4,578
2015-07-24 12:45:11.5,597
2015-07-24 12:45:11.5,564
2015-07-24 12:45:11.6,560
2015-07-24 12:45:11.6,559
2015-07-24 12:45:11.7,526
2015-07-24 12:45:11.7,480
2015-07-24 12:45:11.8,435
2015-07-24 12:45:11.8,393
2015-07-24 12:45:11.9,358
2015-07-24 12:45:11.9,337
2015-07-24 12:45:12.0,315
2015-07-24 12:45:12.0,298
2015-07-24 12:45:12.1,289
2015-07-24 12:45:12.1,283
2015-07-24 12:45:12.2,278
2015-07-24 12:45:12.2,277
2015-07-24 12:45:12.3,288
2015-07-24 12:45:12.4,295
2015-07-24 12:45:12.4,325
2015-07-24 12:45:12.4,334
2015-07-24 12:45:12.5,376
2015-07-24 12:45:12.6,521
2015-07-24 12:45:12.6,602
2015-07-24 12:45:12.7,571
2015-07-24 12:45:12.7,559
2015-07-24 12:45:12.8,559
2015-07-24 12:45:12.8,547
2015-07-24 12:45:12.9,530
2015-07-24 12:45:12.9,473
2015-07-24 12:45:13.0,431
2015-07-24 12:45:13.0,396
2015-07-24 12:45:13.1,364
2015-07-24 12:45:13.1,352
2015-07-24 12:45:13.2,338
2015-07-24 12:45:13.2,335
2015-07-24 12:45:13.3,315
2015-07-24 12:45:13.3,315
2015-07-24 12:45:13.4,316
2015-07-24 12:45:13.4,300
2015-07-24 12:45:13.5,310
2015-07-24 12:45:13.5,321
2015-07-24 12:45:13.6,328
2015-07-24 12:45:13.6,383
2015-07-24 12:45:13.7,547
2015-07-24 12:45:13.7,560
2015-07-24 12:45:13.8,560
2015-07-24 12:45:13.8,559
2015-07-24 12:45:13.9,560
2015-07-24 12:45:13.9,541
2015-07-24 12:45:14.0,502
2015-07-24 12:45:14.0,450
2015-07-24 12:45:14.1,421
2015-07-24 12:45:14.1,391
2015-07-24 12:45:14.2,376
2015-07-24 12:45:14.2,345
2015-07-24 12:45:14.3,333
2015-07-24 12:45:14.3,319
2015-07-24 12:45:14.4,328
2015-07-24 12:45:14.4,327
2015-07-24 12:45:14.5,317
2015-07-24 12:45:14.5,327
2015-07-24 12:45:14.6,326
2015-07-24 12:45:14.6,326
2015-07-24 12:45:14.7,317
2015-07-24 12:45:14.7,337
2015-07-24 12:45:14.8,388
2015-07-24 12:45:14.8,496
2015-07-24 12:45:14.9,561
2015-07-24 12:45:14.9,559
2015-07-24 12:45:15.0,553
2015-07-24 12:45:15.0,504
2015-07-24 12:45:15.1,479
2015-07-24 12:45:15.1,466
2015-07-24 12:45:15.2,425
2015-07-24 12:45:15.2,404
2015-07-24 12:45:15.3,383
2015-07-24 12:45:15.3,366
2015-07-24 12:45:15.4,345
2015-07-24 12:45:15.4,348
2015-07-24 12:45:15.5,343
2015-07-24 12:45:15.5,327
2015-07-24 12:45:15.6,334
2015-07-24 12:45:15.6,339
2015-07-24 12:45:15.7,349
2015-07-24 12:45:15.7,335
2015-07-24 12:45:15.8,369
2015-07-24 12:45:15.8,385
2015-07-24 12:45:15.9,370
2015-07-24 12:45:15.9,418
2015-07-24 12:45:16.0,521
2015-07-24 12:45:16.0,558
2015-07-24 12:45:16.1,558
2015-07-24 12:45:16.1,559
2015-07-24 12:45:16.2,524
2015-07-24 12:45:16.2,485
2015-07-24 12:45:16.3,453
2015-07-24 12:45:16.3,442
2015-07-24 12:45:16.4,434
2015-07-24 12:45:16.4,410
2015-07-24 12:45:16.5,388
2015-07-24 12:45:16.5,374
2015-07-24 12:45:16.6,348
2015-07-24 12:45:16.6,318
2015-07-24 12:45:16.7,318
2015-07-24 12:45:16.7,317
2015-07-24 12:45:16.8,315
2015-07-24 12:45:16.8,333
2015-07-24 12:45:16.9,328
2015-07-24 12:45:16.9,327
2015-07-24 12:45:17.0,347
2015-07-24 12:45:17.0,425
2015-07-24 12:45:17.1,563
2015-07-24 12:45:17.1,559
2015-07-24 12:45:17.2,559
2015-07-24 12:45:17.2,557
2015-07-24 12:45:17.3,557
2015-07-24 12:45:17.3,552
2015-07-24 12:45:17.4,541
2015-07-24 12:45:17.4,519
2015-07-24 12:45:17.5,496
2015-07-24 12:45:17.5,503
2015-07-24 12:45:17.6,489
2015-07-24 12:45:17.6,467
2015-07-24 12:45:17.7,446
2015-07-24 12:45:17.7,436
2015-07-24 12:45:17.8,419
2015-07-24 12:45:17.8,408
2015-07-24 12:45:17.9,387
2015-07-24 12:45:17.9,348
2015-07-24 12:45:18.0,326
2015-07-24 12:45:18.0,310
2015-07-24 12:45:18.1,347
2015-07-24 12:45:18.1,462
2015-07-24 12:45:18.2,561
2015-07-24 12:45:18.2,550
2015-07-24 12:45:18.3,510
2015-07-24 12:45:18.3,432
2015-07-24 12:45:18.4,366
2015-07-24 12:45:18.4,349
2015-07-24 12:45:18.5,347
2015-07-24 12:45:18.5,335
2015-07-24 12:45:18.6,329
2015-07-24 12:45:18.6,313
2015-07-24 12:45:18.7,294
2015-07-24 12:45:18.7,276
2015-07-24 12:45:18.8,289
2015-07-24 12:45:18.8,303
2015-07-24 12:45:18.9,313
2015-07-24 12:45:18.9,328
2015-07-24 12:45:19.0,329
2015-07-24 12:45:19.0,326
2015-07-24 12:45:19.1,331
2015-07-24 12:45:19.1,424
2015-07-24 12:45:19.2,537
2015-07-24 12:45:19.2,558
2015-07-24 12:45:19.3,519
2015-07-24 12:45:19.3,440
2015-07-24 12:45:19.4,393
2015-07-24 12:45:19.4,369
2015-07-24 12:45:19.5,386
2015-07-24 12:45:19.5,403
2015-07-24 12:45:19.6,373
2015-07-24 12:45:19.6,386
2015-07-24 12:45:19.7,384
2015-07-24 12:45:19.7,397
2015-07-24 12:45:19.8,387
2015-07-24 12:45:19.8,374
2015-07-24 12:45:19.9,380
2015-07-24 12:45:19.9,374
2015-07-24 12:45:20.0,423
2015-07-24 12:45:20.0,502
2015-07-24 12:45:20.1,564
2015-07-24 12:45:20.1,562
2015-07-24 12:45:20.2,544
2015-07-24 12:45:20.2,519
2015-07-24 12:45:20.3,465
2015-07-24 12:45:20.3,421
2015-07-24 12:45:20.4,405
2015-07-24 12:45:20.5,406
2015-07-24 12:45:20.5,390
2015-07-24 12:45:20.5,399
2015-07-24 12:45:20.6,391
2015-07-24 12:45:20.7,372
2015-07-24 12:45:20.7,344
2015-07-24 12:45:20.8,336
2015-07-24 12:45:20.8,337
2015-07-24 12:45:20.9,343
2015-07-24 12:45:20.9,404
2015-07-24 12:45:21.0,530
2015-07-24 12:45:21.0,559
2015-07-24 12:45:21.1,560
2015-07-24 12:45:21.1,552
2015-07-24 12:45:21.2,519
2015-07-24 12:45:21.2,465
2015-07-24 12:45:21.3,442
2015-07-24 12:45:21.3,433
2015-07-24 12:45:21.4,423
2015-07-24 12:45:21.4,397
2015-07-24 12:45:21.5,390
2015-07-24 12:45:21.5,380
2015-07-24 12:45:21.6,367
2015-07-24 12:45:21.6,373
2015-07-24 12:45:21.7,371
2015-07-24 12:45:21.7,365
2015-07-24 12:45:21.8,369
2015-07-24 12:45:21.8,435
2015-07-24 12:45:21.9,546
2015-07-24 12:45:21.9,560
2015-07-24 12:45:22.0,559
2015-07-24 12:45:22.0,552
2015-07-24 12:45:22.1,519
2015-07-24 12:45:22.1,448
2015-07-24 12:45:22.2,417
2015-07-24 12:45:22.2,407
2015-07-24 12:45:22.3,369
2015-07-24 12:45:22.3,361
2015-07-24 12:45:22.4,349
2015-07-24 12:45:22.4,348
2015-07-24 12:45:22.5,337
2015-07-24 12:45:22.5,336
2015-07-24 12:45:22.6,340
2015-07-24 12:45:22.6,332
2015-07-24 12:45:22.7,338
2015-07-24 12:45:22.7,369
2015-07-24 12:45:22.8,471
2015-07-24 12:45:22.8,566
2015-07-24 12:45:22.9,560
2015-07-24 12:45:22.9,554
2015-07-24 12:45:23.0,505
2015-07-24 12:45:23.0,458
2015-07-24 12:45:23.1,433
2015-07-24 12:45:23.1,422
2015-07-24 12:45:23.2,393
2015-07-24 12:45:23.2,384
2015-07-24 12:45:23.3,374
2015-07-24 12:45:23.3,355
2015-07-24 12:45:23.4,355
2015-07-24 12:45:23.4,354
2015-07-24 12:45:23.5,357
2015-07-24 12:45:23.5,350
2015-07-24 12:45:23.6,355
2015-07-24 12:45:23.6,352
2015-07-24 12:45:23.7,349
2015-07-24 12:45:23.7,374
2015-07-24 12:45:23.8,453
2015-07-24 12:45:23.8,570
2015-07-24 12:45:23.9,559
2015-07-24 12:45:23.9,560
2015-07-24 12:45:24.0,553
2015-07-24 12:45:24.0,513
2015-07-24 12:45:24.1,482
2015-07-24 12:45:24.1,454
2015-07-24 12:45:24.2,437
2015-07-24 12:45:24.2,411
2015-07-24 12:45:24.3,402
2015-07-24 12:45:24.3,395
2015-07-24 12:45:24.4,388
2015-07-24 12:45:24.4,378
2015-07-24 12:45:24.5,382
2015-07-24 12:45:24.5,381
2015-07-24 12:45:24.6,366
2015-07-24 12:45:24.6,384
2015-07-24 12:45:24.7,370
2015-07-24 12:45:24.7,340
2015-07-24 12:45:24.8,347
2015-07-24 12:45:24.8,438
2015-07-24 12:45:24.9,560
2015-07-24 12:45:24.9,559
2015-07-24 12:45:25.0,560
2015-07-24 12:45:25.0,539
2015-07-24 12:45:25.1,498
2015-07-24 12:45:25.1,451
2015-07-24 12:45:25.2,413
2015-07-24 12:45:25.2,385
2015-07-24 12:45:25.3,356
2015-07-24 12:45:25.3,368
2015-07-24 12:45:25.4,353
2015-07-24 12:45:25.4,335
2015-07-24 12:45:25.5,330
2015-07-24 12:45:25.5,351
2015-07-24 12:45:25.6,390
2015-07-24 12:45:25.6,389
2015-07-24 12:45:25.7,364
2015-07-24 12:45:25.7,344
2015-07-24 12:45:25.8,344
2015-07-24 12:45:25.8,380
2015-07-24 12:45:25.9,485
2015-07-24 12:45:25.9,561
2015-07-24 12:45:26.0,555
2015-07-24 12:45:26.0,540
2015-07-24 12:45:26.1,488
2015-07-24 12:45:26.1,439
2015-07-24 12:45:26.2,420
2015-07-24 12:45:26.2,425
2015-07-24 12:45:26.3,414
2015-07-24 12:45:26.3,383
2015-07-24 12:45:26.4,375
2015-07-24 12:45:26.4,368
2015-07-24 12:45:26.5,372
2015-07-24 12:45:26.5,356
2015-07-24 12:45:26.6,334
2015-07-24 12:45:26.6,330
2015-07-24 12:45:26.7,323
2015-07-24 12:45:26.7,338
2015-07-24 12:45:26.8,347
2015-07-24 12:45:26.8,371
2015-07-24 12:45:26.9,439
2015-07-24 12:45:26.9,548
2015-07-24 12:45:27.0,560
2015-07-24 12:45:27.0,560
2015-07-24 12:45:27.1,550
2015-07-24 12:45:27.1,506
2015-07-24 12:45:27.2,470
2015-07-24 12:45:27.2,434
2015-07-24 12:45:27.3,432
2015-07-24 12:45:27.3,444
2015-07-24 12:45:27.4,404
2015-07-24 12:45:27.4,370
2015-07-24 12:45:27.5,336
2015-07-24 12:45:27.5,368
2015-07-24 12:45:27.6,359
2015-07-24 12:45:27.6,352
2015-07-24 12:45:27.7,317
2015-07-24 12:45:27.7,290
2015-07-24 12:45:27.8,308
2015-07-24 12:45:27.8,346
2015-07-24 12:45:27.9,424
2015-07-24 12:45:27.9,511
2015-07-24 12:45:28.0,558
2015-07-24 12:45:28.1,551
2015-07-24 12:45:28.1,480
2015-07-24 12:45:28.1,437
2015-07-24 12:45:28.2,424
2015-07-24 12:45:28.3,417
2015-07-24 12:45:28.3,397
2015-07-24 12:45:28.3,390
2015-07-24 12:45:28.4,383
2015-07-24 12:45:28.5,367
2015-07-24 12:45:28.5,363
2015-07-24 12:45:28.5,362
2015-07-24 12:45:28.6,363
2015-07-24 12:45:28.7,355
2015-07-24 12:45:28.7,383
2015-07-24 12:45:28.8,450
2015-07-24 12:45:28.8,542
2015-07-24 12:45:28.9,560
2015-07-24 12:45:28.9,560
2015-07-24 12:45:29.0,547
2015-07-24 12:45:29.0,495
2015-07-24 12:45:29.1,448
2015-07-24 12:45:29.1,429
2015-07-24 12:45:29.2,412
2015-07-24 12:45:29.2,404
2015-07-24 12:45:29.3,407
2015-07-24 12:45:29.3,385
2015-07-24 12:45:29.4,353
2015-07-24 12:45:29.4,363
2015-07-24 12:45:29.5,370
2015-07-24 12:45:29.5,359
2015-07-24 12:45:29.6,352
2015-07-24 12:45:29.6,420
2015-07-24 12:45:29.7,527
2015-07-24 12:45:29.7,558
2015-07-24 12:45:29.8,560
2015-07-24 12:45:29.8,555
2015-07-24 12:45:29.9,530
2015-07-24 12:45:29.9,493
2015-07-24 12:45:30.0,457
2015-07-24 12:45:30.0,434
2015-07-24 12:45:30.1,398
2015-07-24 12:45:30.1,382
2015-07-24 12:45:30.2,365
2015-07-24 12:45:30.2,353
2015-07-24 12:45:30.3,352
2015-07-24 12:45:30.3,339
2015-07-24 12:45:30.4,305
2015-07-24 12:45:30.4,289
2015-07-24 12:45:30.5,370
2015-07-24 12:45:30.5,513
2015-07-24 12:45:30.6,559
2015-07-24 12:45:30.6,560
2015-07-24 12:45:30.7,538
2015-07-24 12:45:30.7,488
2015-07-24 12:45:30.8,431
2015-07-24 12:45:30.8,415
2015-07-24 12:45:30.9,400
2015-07-24 12:45:30.9,367
2015-07-24 12:45:31.0,327
2015-07-24 12:45:31.0,316
2015-07-24 12:45:31.1,324
2015-07-24 12:45:31.1,331
2015-07-24 12:45:31.2,348
2015-07-24 12:45:31.2,350
2015-07-24 12:45:31.3,349
2015-07-24 12:45:31.3,341
2015-07-24 12:45:31.4,388
2015-07-24 12:45:31.4,531
2015-07-24 12:45:31.5,560
2015-07-24 12:45:31.5,559
2015-07-24 12:45:31.6,522
2015-07-24 12:45:31.6,459
2015-07-24 12:45:31.7,419
2015-07-24 12:45:31.7,411
2015-07-24 12:45:31.8,426
2015-07-24 12:45:31.8,408
2015-07-24 12:45:31.9,394
2015-07-24 12:45:31.9,371
2015-07-24 12:45:32.0,337
2015-07-24 12:45:32.0,336
2015-07-24 12:45:32.1,377
2015-07-24 12:45:32.1,350
2015-07-24 12:45:32.2,328
2015-07-24 12:45:32.2,322
2015-07-24 12:45:32.3,328
2015-07-24 12:45:32.3,330
2015-07-24 12:45:32.4,374
2015-07-24 12:45:32.4,523
2015-07-24 12:45:32.5,560
2015-07-24 12:45:32.5,552
2015-07-24 12:45:32.6,530
2015-07-24 12:45:32.6,473
2015-07-24 12:45:32.7,434
2015-07-24 12:45:32.7,408
2015-07-24 12:45:32.8,401
2015-07-24 12:45:32.8,389
2015-07-24 12:45:32.9,360
2015-07-24 12:45:32.9,351
2015-07-24 12:45:33.0,346
2015-07-24 12:45:33.0,341
2015-07-24 12:45:33.1,329
2015-07-24 12:45:33.1,339
2015-07-24 12:45:33.2,345
2015-07-24 12:45:33.2,336
2015-07-24 12:45:33.3,346
2015-07-24 12:45:33.3,367
2015-07-24 12:45:33.4,439
2015-07-24 12:45:33.4,545
2015-07-24 12:45:33.5,560
2015-07-24 12:45:33.5,559
2015-07-24 12:45:33.6,535
2015-07-24 12:45:33.6,511
2015-07-24 12:45:33.7,500
2015-07-24 12:45:33.7,469
2015-07-24 12:45:33.8,440
2015-07-24 12:45:33.8,422
2015-07-24 12:45:33.9,409
2015-07-24 12:45:33.9,387
2015-07-24 12:45:34.0,384
2015-07-24 12:45:34.0,370
2015-07-24 12:45:34.1,363
2015-07-24 12:45:34.1,357
2015-07-24 12:45:34.2,371
2015-07-24 12:45:34.2,383
2015-07-24 12:45:34.3,351
2015-07-24 12:45:34.3,338
2015-07-24 12:45:34.4,374
2015-07-24 12:45:34.4,479
2015-07-24 12:45:34.5,567
2015-07-24 12:45:34.5,559
2015-07-24 12:45:34.6,560
2015-07-24 12:45:34.6,534
2015-07-24 12:45:34.7,483
2015-07-24 12:45:34.7,465
2015-07-24 12:45:34.8,452
2015-07-24 12:45:34.8,436
2015-07-24 12:45:34.9,422
2015-07-24 12:45:34.9,389
2015-07-24 12:45:35.0,370
2015-07-24 12:45:35.0,366
2015-07-24 12:45:35.1,382
2015-07-24 12:45:35.1,386
2015-07-24 12:45:35.2,365
2015-07-24 12:45:35.2,345
2015-07-24 12:45:35.3,345
2015-07-24 12:45:35.3,351
2015-07-24 12:45:35.4,338
2015-07-24 12:45:35.4,365
2015-07-24 12:45:35.5,415
2015-07-24 12:45:35.5,520
2015-07-24 12:45:35.6,560
2015-07-24 12:45:35.6,558
2015-07-24 12:45:35.7,524
2015-07-24 12:45:35.7,474
2015-07-24 12:45:35.8,433
2015-07-24 12:45:35.8,432
2015-07-24 12:45:35.9,412
2015-07-24 12:45:35.9,397
2015-07-24 12:45:36.0,388
2015-07-24 12:45:36.0,370
2015-07-24 12:45:36.1,376
2015-07-24 12:45:36.1,372
2015-07-24 12:45:36.2,360
2015-07-24 12:45:36.3,350
2015-07-24 12:45:36.3,353
2015-07-24 12:45:36.3,349
2015-07-24 12:45:36.4,353
2015-07-24 12:45:36.5,350
2015-07-24 12:45:36.5,334
2015-07-24 12:45:36.6,345
2015-07-24 12:45:36.6,371
2015-07-24 12:45:36.7,478
2015-07-24 12:45:36.7,527
2015-07-24 12:45:36.8,521
2015-07-24 12:45:36.8,472
2015-07-24 12:45:36.9,436
2015-07-24 12:45:36.9,465
2015-07-24 12:45:37.0,445
2015-07-24 12:45:37.0,409
2015-07-24 12:45:37.1,412
2015-07-24 12:45:37.1,393
2015-07-24 12:45:37.2,368
2015-07-24 12:45:37.2,358
2015-07-24 12:45:37.3,362
2015-07-24 12:45:37.3,358
2015-07-24 12:45:37.4,364
2015-07-24 12:45:37.4,378
2015-07-24 12:45:37.5,371
2015-07-24 12:45:37.5,369
2015-07-24 12:45:37.6,371
2015-07-24 12:45:37.6,430
2015-07-24 12:45:37.7,519
2015-07-24 12:45:37.7,560
2015-07-24 12:45:37.8,560
2015-07-24 12:45:37.8,559
2015-07-24 12:45:37.9,522
2015-07-24 12:45:37.9,487
2015-07-24 12:45:38.0,456
2015-07-24 12:45:38.0,410
2015-07-24 12:45:38.1,421
2015-07-24 12:45:38.1,412
2015-07-24 12:45:38.2,383
2015-07-24 12:45:38.2,366
2015-07-24 12:45:38.3,364
2015-07-24 12:45:38.3,354
2015-07-24 12:45:38.4,368
2015-07-24 12:45:38.4,364
2015-07-24 12:45:38.5,348
2015-07-24 12:45:38.5,362
2015-07-24 12:45:38.6,399
2015-07-24 12:45:38.6,479
2015-07-24 12:45:38.7,537
2015-07-24 12:45:38.7,560
2015-07-24 12:45:38.8,547
2015-07-24 12:45:38.8,497
2015-07-24 12:45:38.9,440
2015-07-24 12:45:38.9,411
2015-07-24 12:45:39.0,410
2015-07-24 12:45:39.0,394
2015-07-24 12:45:39.1,370
2015-07-24 12:45:39.1,343
2015-07-24 12:45:39.2,322
2015-07-24 12:45:39.2,316
2015-07-24 12:45:39.3,302
2015-07-24 12:45:39.3,314
2015-07-24 12:45:39.4,326
2015-07-24 12:45:39.4,328
2015-07-24 12:45:39.5,315
2015-07-24 12:45:39.5,333
2015-07-24 12:45:39.6,404
2015-07-24 12:45:39.6,515
2015-07-24 12:45:39.7,559
2015-07-24 12:45:39.7,550
2015-07-24 12:45:39.8,514
2015-07-24 12:45:39.8,458
2015-07-24 12:45:39.9,443
2015-07-24 12:45:39.9,433
2015-07-24 12:45:40.0,406
2015-07-24 12:45:40.0,390
2015-07-24 12:45:40.1,380
2015-07-24 12:45:40.1,385
2015-07-24 12:45:40.2,355
2015-07-24 12:45:40.2,365
2015-07-24 12:45:40.3,362
2015-07-24 12:45:40.3,367
2015-07-24 12:45:40.4,389
2015-07-24 12:45:40.4,364
2015-07-24 12:45:40.5,370
2015-07-24 12:45:40.5,419
2015-07-24 12:45:40.6,519
2015-07-24 12:45:40.6,559
2015-07-24 12:45:40.7,538
2015-07-24 12:45:40.7,504
2015-07-24 12:45:40.8,472
2015-07-24 12:45:40.8,450
2015-07-24 12:45:40.9,429
2015-07-24 12:45:40.9,405
2015-07-24 12:45:41.0,396
2015-07-24 12:45:41.0,366
2015-07-24 12:45:41.1,373
2015-07-24 12:45:41.1,360
2015-07-24 12:45:41.2,371
2015-07-24 12:45:41.2,355
2015-07-24 12:45:41.3,363
2015-07-24 12:45:41.3,378
2015-07-24 12:45:41.4,362
2015-07-24 12:45:41.4,383
2015-07-24 12:45:41.5,409
2015-07-24 12:45:41.5,506
2015-07-24 12:45:41.6,562
2015-07-24 12:45:41.6,559
2015-07-24 12:45:41.7,539
2015-07-24 12:45:41.7,483
2015-07-24 12:45:41.8,448
2015-07-24 12:45:41.8,442
2015-07-24 12:45:41.9,438
2015-07-24 12:45:41.9,410
2015-07-24 12:45:42.0,395
2015-07-24 12:45:42.0,408
2015-07-24 12:45:42.1,397
2015-07-24 12:45:42.1,368
2015-07-24 12:45:42.2,350
2015-07-24 12:45:42.2,346
2015-07-24 12:45:42.3,342
2015-07-24 12:45:42.3,379
2015-07-24 12:45:42.4,385
2015-07-24 12:45:42.4,355
2015-07-24 12:45:42.5,394
2015-07-24 12:45:42.5,473
2015-07-24 12:45:42.6,525
2015-07-24 12:45:42.6,535
2015-07-24 12:45:42.7,522
2015-07-24 12:45:42.7,488
2015-07-24 12:45:42.8,468
2015-07-24 12:45:42.8,449
2015-07-24 12:45:42.9,433
2015-07-24 12:45:42.9,417
2015-07-24 12:45:43.0,386
2015-07-24 12:45:43.0,379
2015-07-24 12:45:43.1,371
2015-07-24 12:45:43.1,364
2015-07-24 12:45:43.2,362
2015-07-24 12:45:43.2,360
2015-07-24 12:45:43.3,364
2015-07-24 12:45:43.3,342
2015-07-24 12:45:43.4,335
2015-07-24 12:45:43.4,345
2015-07-24 12:45:43.5,405
2015-07-24 12:45:43.5,493
2015-07-24 12:45:43.6,553
2015-07-24 12:45:43.6,559
2015-07-24 12:45:43.7,522
2015-07-24 12:45:43.7,502
2015-07-24 12:45:43.8,486
2015-07-24 12:45:43.8,473
2015-07-24 12:45:43.9,436
2015-07-24 12:45:43.9,419
2015-07-24 12:45:44.0,396
2015-07-24 12:45:44.1,384
2015-07-24 12:45:44.1,370
2015-07-24 12:45:44.1,354
2015-07-24 12:45:44.2,371
2015-07-24 12:45:44.3,363
2015-07-24 12:45:44.3,370
2015-07-24 12:45:44.4,372
2015-07-24 12:45:44.4,366
2015-07-24 12:45:44.4,460
2015-07-24 12:45:44.5,538
2015-07-24 12:45:44.6,560
2015-07-24 12:45:44.6,552
2015-07-24 12:45:44.7,541
2015-07-24 12:45:44.7,499
2015-07-24 12:45:44.8,442
2015-07-24 12:45:44.8,434
2015-07-24 12:45:44.9,411
2015-07-24 12:45:44.9,396
2015-07-24 12:45:45.0,360
2015-07-24 12:45:45.0,355
2015-07-24 12:45:45.1,380
2015-07-24 12:45:45.1,370
2015-07-24 12:45:45.2,364
2015-07-24 12:45:45.2,351
2015-07-24 12:45:45.3,332
2015-07-24 12:45:45.3,319
2015-07-24 12:45:45.4,344
2015-07-24 12:45:45.4,412
2015-07-24 12:45:45.5,493
2015-07-24 12:45:45.5,559
2015-07-24 12:45:45.6,558
2015-07-24 12:45:45.6,530
2015-07-24 12:45:45.7,467
2015-07-24 12:45:45.7,442
2015-07-24 12:45:45.8,451
2015-07-24 12:45:45.8,436
2015-07-24 12:45:45.9,429
2015-07-24 12:45:45.9,417
2015-07-24 12:45:46.0,401
2015-07-24 12:45:46.0,377
2015-07-24 12:45:46.1,373
2015-07-24 12:45:46.1,375
2015-07-24 12:45:46.2,362
2015-07-24 12:45:46.2,361
2015-07-24 12:45:46.3,364
2015-07-24 12:45:46.3,367
2015-07-24 12:45:46.4,358
2015-07-24 12:45:46.4,427
2015-07-24 12:45:46.5,547
2015-07-24 12:45:46.5,559
2015-07-24 12:45:46.6,559
2015-07-24 12:45:46.6,545
2015-07-24 12:45:46.7,504
2015-07-24 12:45:46.7,451
2015-07-24 12:45:46.8,442
2015-07-24 12:45:46.9,431
2015-07-24 12:45:46.9,395
2015-07-24 12:45:46.9,386
2015-07-24 12:45:47.0,363
2015-07-24 12:45:47.0,370
2015-07-24 12:45:47.1,374
2015-07-24 12:45:47.1,390
2015-07-24 12:45:47.2,359
2015-07-24 12:45:47.2,311
2015-07-24 12:45:47.3,310
2015-07-24 12:45:47.3,310
2015-07-24 12:45:47.4,304
2015-07-24 12:45:47.4,314
2015-07-24 12:45:47.5,412
2015-07-24 12:45:47.5,507
2015-07-24 12:45:47.6,545
2015-07-24 12:45:47.6,546
2015-07-24 12:45:47.7,527
2015-07-24 12:45:47.7,471
2015-07-24 12:45:47.8,411
2015-07-24 12:45:47.8,404
2015-07-24 12:45:47.9,407
2015-07-24 12:45:47.9,394
2015-07-24 12:45:48.0,371
2015-07-24 12:45:48.0,361
2015-07-24 12:45:48.1,351
2015-07-24 12:45:48.1,330
2015-07-24 12:45:48.2,334
2015-07-24 12:45:48.2,337
2015-07-24 12:45:48.3,339
2015-07-24 12:45:48.3,336
2015-07-24 12:45:48.4,337
2015-07-24 12:45:48.4,360
2015-07-24 12:45:48.5,416
2015-07-24 12:45:48.5,506
2015-07-24 12:45:48.6,537
2015-07-24 12:45:48.6,536
2015-07-24 12:45:48.7,498
2015-07-24 12:45:48.7,458
2015-07-24 12:45:48.8,409
2015-07-24 12:45:48.8,391
2015-07-24 12:45:48.9,404
2015-07-24 12:45:48.9,392
2015-07-24 12:45:49.0,355
2015-07-24 12:45:49.0,320
2015-07-24 12:45:49.1,319
2015-07-24 12:45:49.1,326
2015-07-24 12:45:49.2,342
2015-07-24 12:45:49.2,345
2015-07-24 12:45:49.3,328
2015-07-24 12:45:49.3,334
2015-07-24 12:45:49.4,327
2015-07-24 12:45:49.4,358
2015-07-24 12:45:49.5,428
2015-07-24 12:45:49.5,520
2015-07-24 12:45:49.6,557
2015-07-24 12:45:49.6,546
2015-07-24 12:45:49.7,519
2015-07-24 12:45:49.7,475
2015-07-24 12:45:49.8,473
2015-07-24 12:45:49.8,472
2015-07-24 12:45:49.9,437
2015-07-24 12:45:49.9,410
2015-07-24 12:45:50.0,406
2015-07-24 12:45:50.0,406
2015-07-24 12:45:50.1,390
2015-07-24 12:45:50.1,419
2015-07-24 12:45:50.2,457
2015-07-24 12:45:50.2,500
2015-07-24 12:45:50.3,550
2015-07-24 12:45:50.3,559
2015-07-24 12:45:50.4,559
2015-07-24 12:45:50.4,561
2015-07-24 12:45:50.5,567
2015-07-24 12:45:50.5,571
2015-07-24 12:45:50.6,571
2015-07-24 12:45:50.6,559
2015-07-24 12:45:50.7,559
2015-07-24 12:45:50.7,560
2015-07-24 12:45:50.8,555
2015-07-24 12:45:50.8,538
2015-07-24 12:45:50.9,483
2015-07-24 12:45:50.9,410
2015-07-24 12:45:51.0,371
2015-07-24 12:45:51.0,357
2015-07-24 12:45:51.1,354
2015-07-24 12:45:51.1,329
2015-07-24 12:45:51.2,322
2015-07-24 12:45:51.2,315
2015-07-24 12:45:51.3,288
2015-07-24 12:45:51.3,314
2015-07-24 12:45:51.4,404
2015-07-24 12:45:51.4,489
2015-07-24 12:45:51.5,501
2015-07-24 12:45:51.5,479
2015-07-24 12:45:51.6,440
2015-07-24 12:45:51.6,399
2015-07-24 12:45:51.7,388
2015-07-24 12:45:51.7,379
2015-07-24 12:45:51.8,363
2015-07-24 12:45:51.8,345
2015-07-24 12:45:51.9,386
2015-07-24 12:45:51.9,391
2015-07-24 12:45:52.0,353
2015-07-24 12:45:52.0,329
2015-07-24 12:45:52.1,327
2015-07-24 12:45:52.2,328
2015-07-24 12:45:52.2,313
2015-07-24 12:45:52.2,354
2015-07-24 12:45:52.3,464
2015-07-24 12:45:52.4,545
2015-07-24 12:45:52.4,557
2015-07-24 12:45:52.4,536
2015-07-24 12:45:52.5,492
2015-07-24 12:45:52.6,441
2015-07-24 12:45:52.6,427
2015-07-24 12:45:52.7,417
2015-07-24 12:45:52.7,400
2015-07-24 12:45:52.8,378
2015-07-24 12:45:52.8,359
2015-07-24 12:45:52.9,344
2015-07-24 12:45:52.9,311
2015-07-24 12:45:53.0,298
2015-07-24 12:45:53.0,299
2015-07-24 12:45:53.1,304
2015-07-24 12:45:53.1,300
2015-07-24 12:45:53.2,338
2015-07-24 12:45:53.2,446
2015-07-24 12:45:53.3,566
2015-07-24 12:45:53.3,560
2015-07-24 12:45:53.4,560
2015-07-24 12:45:53.4,551
2015-07-24 12:45:53.5,513
2015-07-24 12:45:53.5,490
2015-07-24 12:45:53.6,455
2015-07-24 12:45:53.6,426
2015-07-24 12:45:53.7,396
2015-07-24 12:45:53.7,377
2015-07-24 12:45:53.8,358
2015-07-24 12:45:53.8,339
2015-07-24 12:45:53.9,343
2015-07-24 12:45:53.9,337
2015-07-24 12:45:54.0,331
2015-07-24 12:45:54.0,346
2015-07-24 12:45:54.1,454
2015-07-24 12:45:54.1,568
2015-07-24 12:45:54.2,564
2015-07-24 12:45:54.2,560
2015-07-24 12:45:54.3,551
2015-07-24 12:45:54.3,519
2015-07-24 12:45:54.4,477
2015-07-24 12:45:54.4,434
2015-07-24 12:45:54.5,409
2015-07-24 12:45:54.5,364
2015-07-24 12:45:54.6,357
2015-07-24 12:45:54.6,381
2015-07-24 12:45:54.7,377
2015-07-24 12:45:54.7,358
2015-07-24 12:45:54.8,340
2015-07-24 12:45:54.8,325
2015-07-24 12:45:54.9,323
2015-07-24 12:45:54.9,427
2015-07-24 12:45:55.0,557
2015-07-24 12:45:55.0,559
2015-07-24 12:45:55.1,559
2015-07-24 12:45:55.1,548
2015-07-24 12:45:55.2,498
2015-07-24 12:45:55.2,434
2015-07-24 12:45:55.3,407
2015-07-24 12:45:55.3,387
2015-07-24 12:45:55.4,345
2015-07-24 12:45:55.4,330
2015-07-24 12:45:55.5,316
2015-07-24 12:45:55.5,309
2015-07-24 12:45:55.6,296
2015-07-24 12:45:55.6,302
2015-07-24 12:45:55.7,299
2015-07-24 12:45:55.7,283
2015-07-24 12:45:55.8,313
2015-07-24 12:45:55.8,358
2015-07-24 12:45:55.9,460
2015-07-24 12:45:55.9,556
2015-07-24 12:45:56.0,561
2015-07-24 12:45:56.0,560
2015-07-24 12:45:56.1,524
2015-07-24 12:45:56.1,488
2015-07-24 12:45:56.2,447
2015-07-24 12:45:56.2,417
2015-07-24 12:45:56.3,364
2015-07-24 12:45:56.3,324
2015-07-24 12:45:56.4,299
2015-07-24 12:45:56.4,282
2015-07-24 12:45:56.5,281
2015-07-24 12:45:56.5,302
2015-07-24 12:45:56.6,308
2015-07-24 12:45:56.6,277
2015-07-24 12:45:56.7,274
2015-07-24 12:45:56.7,290
2015-07-24 12:45:56.8,287
2015-07-24 12:45:56.8,290
2015-07-24 12:45:56.9,321
2015-07-24 12:45:56.9,436
2015-07-24 12:45:57.0,555
2015-07-24 12:45:57.0,559
2015-07-24 12:45:57.1,559
2015-07-24 12:45:57.1,545
2015-07-24 12:45:57.2,522
2015-07-24 12:45:57.2,495
2015-07-24 12:45:57.3,467
2015-07-24 12:45:57.3,446
2015-07-24 12:45:57.4,433
2015-07-24 12:45:57.4,382
2015-07-24 12:45:57.5,355
2015-07-24 12:45:57.5,330
2015-07-24 12:45:57.6,333
2015-07-24 12:45:57.6,341
2015-07-24 12:45:57.7,332
2015-07-24 12:45:57.7,349
2015-07-24 12:45:57.8,348
2015-07-24 12:45:57.8,347
2015-07-24 12:45:57.9,356
2015-07-24 12:45:57.9,376
2015-07-24 12:45:58.0,399
2015-07-24 12:45:58.0,494
2015-07-24 12:45:58.1,561
2015-07-24 12:45:58.1,554
2015-07-24 12:45:58.2,524
2015-07-24 12:45:58.2,451
2015-07-24 12:45:58.3,425
2015-07-24 12:45:58.3,413
2015-07-24 12:45:58.4,397
2015-07-24 12:45:58.4,395
2015-07-24 12:45:58.5,386
2015-07-24 12:45:58.5,380
2015-07-24 12:45:58.6,368
2015-07-24 12:45:58.6,380
2015-07-24 12:45:58.7,389
2015-07-24 12:45:58.7,387
2015-07-24 12:45:58.8,399
2015-07-24 12:45:58.8,408
2015-07-24 12:45:58.9,393
2015-07-24 12:45:58.9,360
2015-07-24 12:45:59.0,354
2015-07-24 12:45:59.0,360
2015-07-24 12:45:59.1,393
2015-07-24 12:45:59.1,479
2015-07-24 12:45:59.2,534
2015-07-24 12:45:59.2,534
2015-07-24 12:45:59.3,470
2015-07-24 12:45:59.3,410
2015-07-24 12:45:59.4,371
2015-07-24 12:45:59.4,335
2015-07-24 12:45:59.5,312
2015-07-24 12:45:59.5,278
2015-07-24 12:45:59.6,236
2015-07-24 12:45:59.6,197
2015-07-24 12:45:59.7,194
2015-07-24 12:45:59.8,209
2015-07-24 12:45:59.8,224
2015-07-24 12:45:59.8,257
2015-07-24 12:45:59.9,292
2015-07-24 12:45:59.9,322
2015-07-24 12:46:00.0,352
2015-07-24 12:46:00.0,386
2015-07-24 12:46:00.1,408
2015-07-24 12:46:00.2,484
2015-07-24 12:46:00.2,582
2015-07-24 12:46:00.2,561
2015-07-24 12:46:00.3,560
2015-07-24 12:46:00.3,559
2015-07-24 12:46:00.4,558
2015-07-24 12:46:00.5,560
2015-07-24 12:46:00.5,560
2015-07-24 12:46:00.6,551
2015-07-24 12:46:00.6,533
2015-07-24 12:46:00.7,499
2015-07-24 12:46:00.7,468
2015-07-24 12:46:00.8,489
2015-07-24 12:46:00.8,513
2015-07-24 12:46:00.9,523
2015-07-24 12:46:00.9,547
2015-07-24 12:46:01.0,558
2015-07-24 12:46:01.0,527
2015-07-24 12:46:01.1,479
2015-07-24 12:46:01.1,470
2015-07-24 12:46:01.2,521
2015-07-24 12:46:01.2,560
2015-07-24 12:46:01.3,529
2015-07-24 12:46:01.3,492
2015-07-24 12:46:01.4,476
2015-07-24 12:46:01.4,494
2015-07-24 12:46:01.5,505
2015-07-24 12:46:01.5,474
2015-07-24 12:46:01.6,407
2015-07-24 12:46:01.6,371
2015-07-24 12:46:01.7,376
2015-07-24 12:46:01.7,414
2015-07-24 12:46:01.8,409
2015-07-24 12:46:01.8,397
2015-07-24 12:46:01.9,376
2015-07-24 12:46:01.9,355
2015-07-24 12:46:02.0,357
2015-07-24 12:46:02.0,426
2015-07-24 12:46:02.1,502
2015-07-24 12:46:02.1,509
2015-07-24 12:46:02.2,492
2015-07-24 12:46:02.2,476
2015-07-24 12:46:02.3,457
2015-07-24 12:46:02.3,446
2015-07-24 12:46:02.4,432
2015-07-24 12:46:02.4,376
2015-07-24 12:46:02.5,324
2015-07-24 12:46:02.5,344
2015-07-24 12:46:02.6,340
2015-07-24 12:46:02.6,307
2015-07-24 12:46:02.7,254
2015-07-24 12:46:02.7,257
2015-07-24 12:46:02.8,329
2015-07-24 12:46:02.8,438
2015-07-24 12:46:02.9,546
2015-07-24 12:46:02.9,560
2015-07-24 12:46:03.0,561
2015-07-24 12:46:03.0,521
2015-07-24 12:46:03.1,490
2015-07-24 12:46:03.1,476
2015-07-24 12:46:03.2,439
2015-07-24 12:46:03.2,418
2015-07-24 12:46:03.3,412
2015-07-24 12:46:03.3,380
2015-07-24 12:46:03.4,354
2015-07-24 12:46:03.4,356
2015-07-24 12:46:03.5,336
2015-07-24 12:46:03.5,355
2015-07-24 12:46:03.6,501
2015-07-24 12:46:03.6,630
2015-07-24 12:46:03.7,641
2015-07-24 12:46:03.7,589
2015-07-24 12:46:03.8,559
2015-07-24 12:46:03.8,559
2015-07-24 12:46:03.9,529
2015-07-24 12:46:03.9,511
2015-07-24 12:46:04.0,449
2015-07-24 12:46:04.0,401
2015-07-24 12:46:04.1,363
2015-07-24 12:46:04.1,339
2015-07-24 12:46:04.2,353
2015-07-24 12:46:04.2,321
2015-07-24 12:46:04.3,310
2015-07-24 12:46:04.3,439
2015-07-24 12:46:04.4,641
2015-07-24 12:46:04.4,636
2015-07-24 12:46:04.5,567
2015-07-24 12:46:04.5,559
2015-07-24 12:46:04.6,542
2015-07-24 12:46:04.6,498
2015-07-24 12:46:04.7,439
2015-07-24 12:46:04.7,389
2015-07-24 12:46:04.8,335
2015-07-24 12:46:04.8,304
2015-07-24 12:46:04.9,279
2015-07-24 12:46:04.9,250
2015-07-24 12:46:05.0,241
2015-07-24 12:46:05.0,235
2015-07-24 12:46:05.1,244
2015-07-24 12:46:05.1,341
2015-07-24 12:46:05.2,613
2015-07-24 12:46:05.2,696
2015-07-24 12:46:05.3,639
2015-07-24 12:46:05.3,546
2015-07-24 12:46:05.4,529
2015-07-24 12:46:05.4,459
2015-07-24 12:46:05.5,366
2015-07-24 12:46:05.5,316
2015-07-24 12:46:05.6,278
2015-07-24 12:46:05.6,244
2015-07-24 12:46:05.7,218
2015-07-24 12:46:05.7,215
2015-07-24 12:46:05.8,218
2015-07-24 12:46:05.8,192
2015-07-24 12:46:05.9,199
2015-07-24 12:46:05.9,206
2015-07-24 12:46:06.0,245
2015-07-24 12:46:06.0,420
2015-07-24 12:46:06.1,664
2015-07-24 12:46:06.1,702
2015-07-24 12:46:06.2,616
2015-07-24 12:46:06.2,547
2015-07-24 12:46:06.3,531
2015-07-24 12:46:06.3,477
2015-07-24 12:46:06.4,430
2015-07-24 12:46:06.4,407
2015-07-24 12:46:06.5,352
2015-07-24 12:46:06.5,286
2015-07-24 12:46:06.6,264
2015-07-24 12:46:06.6,250
2015-07-24 12:46:06.7,237
2015-07-24 12:46:06.7,224
2015-07-24 12:46:06.8,234
2015-07-24 12:46:06.8,247
2015-07-24 12:46:06.9,274
2015-07-24 12:46:06.9,294
2015-07-24 12:46:07.0,309
2015-07-24 12:46:07.0,480
2015-07-24 12:46:07.1,675
2015-07-24 12:46:07.1,728
2015-07-24 12:46:07.2,663
2015-07-24 12:46:07.2,545
2015-07-24 12:46:07.3,554
2015-07-24 12:46:07.3,521
2015-07-24 12:46:07.4,469
2015-07-24 12:46:07.4,405
2015-07-24 12:46:07.5,370
2015-07-24 12:46:07.5,341
2015-07-24 12:46:07.6,314
2015-07-24 12:46:07.6,313
2015-07-24 12:46:07.7,328
2015-07-24 12:46:07.7,362
2015-07-24 12:46:07.8,390
2015-07-24 12:46:07.8,436
2015-07-24 12:46:07.9,464
2015-07-24 12:46:07.9,454
2015-07-24 12:46:08.0,474
2015-07-24 12:46:08.0,564
2015-07-24 12:46:08.1,560
2015-07-24 12:46:08.2,559
2015-07-24 12:46:08.2,547
2015-07-24 12:46:08.3,479
2015-07-24 12:46:08.3,380
2015-07-24 12:46:08.3,305
2015-07-24 12:46:08.4,236
2015-07-24 12:46:08.5,184
2015-07-24 12:46:08.5,138
2015-07-24 12:46:08.6,133
2015-07-24 12:46:08.6,136
2015-07-24 12:46:08.7,139
2015-07-24 12:46:08.7,170
2015-07-24 12:46:08.8,207
2015-07-24 12:46:08.8,255
2015-07-24 12:46:08.9,295
2015-07-24 12:46:08.9,343
2015-07-24 12:46:09.0,372
2015-07-24 12:46:09.0,379
2015-07-24 12:46:09.1,449
2015-07-24 12:46:09.1,625
2015-07-24 12:46:09.2,660
2015-07-24 12:46:09.2,594
2015-07-24 12:46:09.3,559
2015-07-24 12:46:09.3,560
2015-07-24 12:46:09.4,546
2015-07-24 12:46:09.4,537
2015-07-24 12:46:09.5,512
2015-07-24 12:46:09.5,476
2015-07-24 12:46:09.6,414
2015-07-24 12:46:09.6,387
2015-07-24 12:46:09.7,370
2015-07-24 12:46:09.7,348
2015-07-24 12:46:09.8,350
2015-07-24 12:46:09.8,349
2015-07-24 12:46:09.9,338
2015-07-24 12:46:09.9,313
2015-07-24 12:46:10.0,344
2015-07-24 12:46:10.0,553
2015-07-24 12:46:10.1,622
2015-07-24 12:46:10.1,559
2015-07-24 12:46:10.2,560
2015-07-24 12:46:10.2,560
2015-07-24 12:46:10.3,527
2015-07-24 12:46:10.3,503
2015-07-24 12:46:10.4,466
2015-07-24 12:46:10.4,440
2015-07-24 12:46:10.5,424
2015-07-24 12:46:10.5,401
2015-07-24 12:46:10.6,375
2015-07-24 12:46:10.6,339
2015-07-24 12:46:10.7,326
2015-07-24 12:46:10.7,319
2015-07-24 12:46:10.8,337
2015-07-24 12:46:10.8,340
2015-07-24 12:46:10.9,394
2015-07-24 12:46:10.9,584
2015-07-24 12:46:11.0,603
2015-07-24 12:46:11.0,561
2015-07-24 12:46:11.1,559
2015-07-24 12:46:11.1,560
2015-07-24 12:46:11.2,555
2015-07-24 12:46:11.2,541
2015-07-24 12:46:11.3,494
2015-07-24 12:46:11.3,443
2015-07-24 12:46:11.4,425
2015-07-24 12:46:11.4,434
2015-07-24 12:46:11.5,413
2015-07-24 12:46:11.5,344
2015-07-24 12:46:11.6,328
2015-07-24 12:46:11.6,315
2015-07-24 12:46:11.7,274
2015-07-24 12:46:11.7,240
2015-07-24 12:46:11.8,255
2015-07-24 12:46:11.8,359
2015-07-24 12:46:11.9,415
2015-07-24 12:46:11.9,407
2015-07-24 12:46:12.0,332
2015-07-24 12:46:12.0,271
2015-07-24 12:46:12.1,289
2015-07-24 12:46:12.1,320
2015-07-24 12:46:12.2,334
2015-07-24 12:46:12.2,319
2015-07-24 12:46:12.3,325
2015-07-24 12:46:12.3,328
2015-07-24 12:46:12.4,325
2015-07-24 12:46:12.4,334
2015-07-24 12:46:12.5,340
2015-07-24 12:46:12.5,349
2015-07-24 12:46:12.6,359
2015-07-24 12:46:12.6,477
2015-07-24 12:46:12.7,584
2015-07-24 12:46:12.7,559
2015-07-24 12:46:12.8,542
2015-07-24 12:46:12.8,488
2015-07-24 12:46:12.9,441
2015-07-24 12:46:12.9,428
2015-07-24 12:46:13.0,433
2015-07-24 12:46:13.0,431
2015-07-24 12:46:13.1,411
2015-07-24 12:46:13.1,408
2015-07-24 12:46:13.2,409
2015-07-24 12:46:13.2,409
2015-07-24 12:46:13.3,402
2015-07-24 12:46:13.3,405
2015-07-24 12:46:13.4,402
2015-07-24 12:46:13.4,438
2015-07-24 12:46:13.5,583
2015-07-24 12:46:13.5,559
2015-07-24 12:46:13.6,560
2015-07-24 12:46:13.6,520
2015-07-24 12:46:13.7,478
2015-07-24 12:46:13.7,452
2015-07-24 12:46:13.8,450
2015-07-24 12:46:13.8,451
2015-07-24 12:46:13.9,416
2015-07-24 12:46:13.9,365
2015-07-24 12:46:14.0,327
2015-07-24 12:46:14.0,331
2015-07-24 12:46:14.1,340
2015-07-24 12:46:14.1,335
2015-07-24 12:46:14.2,358
2015-07-24 12:46:14.2,483
2015-07-24 12:46:14.3,632
2015-07-24 12:46:14.3,602
2015-07-24 12:46:14.4,559
2015-07-24 12:46:14.4,559
2015-07-24 12:46:14.5,540
2015-07-24 12:46:14.5,507
2015-07-24 12:46:14.6,469
2015-07-24 12:46:14.6,429
2015-07-24 12:46:14.7,384
2015-07-24 12:46:14.7,365
2015-07-24 12:46:14.8,353
2015-07-24 12:46:14.8,345
2015-07-24 12:46:14.9,342
2015-07-24 12:46:14.9,344
2015-07-24 12:46:15.0,337
2015-07-24 12:46:15.0,337
2015-07-24 12:46:15.1,478
2015-07-24 12:46:15.1,625
2015-07-24 12:46:15.2,590
2015-07-24 12:46:15.2,560
2015-07-24 12:46:15.3,560
2015-07-24 12:46:15.3,529
2015-07-24 12:46:15.4,476
2015-07-24 12:46:15.4,448
2015-07-24 12:46:15.5,426
2015-07-24 12:46:15.5,398
2015-07-24 12:46:15.6,361
2015-07-24 12:46:15.6,345
2015-07-24 12:46:15.7,338
2015-07-24 12:46:15.7,326
2015-07-24 12:46:15.8,338
2015-07-24 12:46:15.8,342
2015-07-24 12:46:15.9,338
2015-07-24 12:46:15.9,326
2015-07-24 12:46:16.0,414
2015-07-24 12:46:16.0,628
2015-07-24 12:46:16.1,651
2015-07-24 12:46:16.1,642
2015-07-24 12:46:16.2,599
2015-07-24 12:46:16.3,561
2015-07-24 12:46:16.3,560
2015-07-24 12:46:16.3,559
2015-07-24 12:46:16.4,559
2015-07-24 12:46:16.5,560
2015-07-24 12:46:16.5,529
2015-07-24 12:46:16.5,490
2015-07-24 12:46:16.6,453
2015-07-24 12:46:16.7,418
2015-07-24 12:46:16.7,399
2015-07-24 12:46:16.8,391
2015-07-24 12:46:16.8,375
2015-07-24 12:46:16.9,371
2015-07-24 12:46:16.9,308
2015-07-24 12:46:17.0,269
2015-07-24 12:46:17.0,324
2015-07-24 12:46:17.1,492
2015-07-24 12:46:17.1,574
2015-07-24 12:46:17.2,560
2015-07-24 12:46:17.2,549
2015-07-24 12:46:17.3,518
2015-07-24 12:46:17.3,469
2015-07-24 12:46:17.4,432
2015-07-24 12:46:17.4,402
2015-07-24 12:46:17.5,358
2015-07-24 12:46:17.5,295
2015-07-24 12:46:17.6,248
2015-07-24 12:46:17.6,221
2015-07-24 12:46:17.7,215
2015-07-24 12:46:17.7,216
2015-07-24 12:46:17.8,231
2015-07-24 12:46:17.8,244
2015-07-24 12:46:17.9,220
2015-07-24 12:46:17.9,216
2015-07-24 12:46:18.0,256
2015-07-24 12:46:18.0,340
2015-07-24 12:46:18.1,426
2015-07-24 12:46:18.1,472
2015-07-24 12:46:18.2,440
2015-07-24 12:46:18.2,399
2015-07-24 12:46:18.3,404
2015-07-24 12:46:18.3,382
2015-07-24 12:46:18.4,355
2015-07-24 12:46:18.4,344
2015-07-24 12:46:18.5,341
2015-07-24 12:46:18.5,329
2015-07-24 12:46:18.6,318
2015-07-24 12:46:18.6,328
2015-07-24 12:46:18.7,330
2015-07-24 12:46:18.7,329
2015-07-24 12:46:18.8,325
2015-07-24 12:46:18.8,342
2015-07-24 12:46:18.9,340
2015-07-24 12:46:18.9,393
2015-07-24 12:46:19.0,497
2015-07-24 12:46:19.0,565
2015-07-24 12:46:19.1,560
2015-07-24 12:46:19.1,560
2015-07-24 12:46:19.2,560
2015-07-24 12:46:19.2,548
2015-07-24 12:46:19.3,521
2015-07-24 12:46:19.3,459
2015-07-24 12:46:19.4,417
2015-07-24 12:46:19.4,400
2015-07-24 12:46:19.5,378
2015-07-24 12:46:19.5,378
2015-07-24 12:46:19.6,359
2015-07-24 12:46:19.6,343
2015-07-24 12:46:19.7,348
2015-07-24 12:46:19.7,347
2015-07-24 12:46:19.8,358
2015-07-24 12:46:19.8,416
2015-07-24 12:46:19.9,526
2015-07-24 12:46:19.9,559
2015-07-24 12:46:20.0,559
2015-07-24 12:46:20.0,527
2015-07-24 12:46:20.1,489
2015-07-24 12:46:20.1,447
2015-07-24 12:46:20.2,419
2015-07-24 12:46:20.2,409
2015-07-24 12:46:20.3,388
2015-07-24 12:46:20.3,368
2015-07-24 12:46:20.4,344
2015-07-24 12:46:20.4,344
2015-07-24 12:46:20.5,349
2015-07-24 12:46:20.5,341
2015-07-24 12:46:20.6,338
2015-07-24 12:46:20.6,337
2015-07-24 12:46:20.7,363
2015-07-24 12:46:20.7,437
2015-07-24 12:46:20.8,547
2015-07-24 12:46:20.8,560
2015-07-24 12:46:20.9,559
2015-07-24 12:46:20.9,537
2015-07-24 12:46:21.0,500
2015-07-24 12:46:21.0,486
2015-07-24 12:46:21.1,433
2015-07-24 12:46:21.1,411
2015-07-24 12:46:21.2,409
2015-07-24 12:46:21.2,361
2015-07-24 12:46:21.3,347
2015-07-24 12:46:21.3,363
2015-07-24 12:46:21.4,356
2015-07-24 12:46:21.4,350
2015-07-24 12:46:21.5,375
2015-07-24 12:46:21.5,390
2015-07-24 12:46:21.6,355
2015-07-24 12:46:21.6,404
2015-07-24 12:46:21.7,503
2015-07-24 12:46:21.7,560
2015-07-24 12:46:21.8,557
2015-07-24 12:46:21.8,550
2015-07-24 12:46:21.9,528
2015-07-24 12:46:21.9,470
2015-07-24 12:46:22.0,415
2015-07-24 12:46:22.0,382
2015-07-24 12:46:22.1,366
2015-07-24 12:46:22.1,339
2015-07-24 12:46:22.2,329
2015-07-24 12:46:22.2,313
2015-07-24 12:46:22.3,289
2015-07-24 12:46:22.3,291
2015-07-24 12:46:22.4,299
2015-07-24 12:46:22.4,307
2015-07-24 12:46:22.5,304
2015-07-24 12:46:22.5,342
2015-07-24 12:46:22.6,376
2015-07-24 12:46:22.6,427
2015-07-24 12:46:22.7,494
2015-07-24 12:46:22.7,541
2015-07-24 12:46:22.8,540
2015-07-24 12:46:22.8,493
2015-07-24 12:46:22.9,455
2015-07-24 12:46:22.9,434
2015-07-24 12:46:23.0,413
2015-07-24 12:46:23.0,406
2015-07-24 12:46:23.1,395
2015-07-24 12:46:23.1,380
2015-07-24 12:46:23.2,361
2015-07-24 12:46:23.2,358
2015-07-24 12:46:23.3,357
2015-07-24 12:46:23.3,356
2015-07-24 12:46:23.4,360
2015-07-24 12:46:23.4,360
2015-07-24 12:46:23.5,365
2015-07-24 12:46:23.5,352
2015-07-24 12:46:23.6,359
2015-07-24 12:46:23.6,380
2015-07-24 12:46:23.7,444
2015-07-24 12:46:23.7,516
2015-07-24 12:46:23.8,516
2015-07-24 12:46:23.8,493
2015-07-24 12:46:23.9,455
2015-07-24 12:46:23.9,434
2015-07-24 12:46:24.0,428
2015-07-24 12:46:24.0,424
2015-07-24 12:46:24.1,418
2015-07-24 12:46:24.1,410
2015-07-24 12:46:24.2,402
2015-07-24 12:46:24.3,402
2015-07-24 12:46:24.3,403
2015-07-24 12:46:24.3,395
2015-07-24 12:46:24.4,412
2015-07-24 12:46:24.5,396
2015-07-24 12:46:24.5,411
2015-07-24 12:46:24.6,436
2015-07-24 12:46:24.6,433
2015-07-24 12:46:24.7,422
2015-07-24 12:46:24.7,403
2015-07-24 12:46:24.8,440
2015-07-24 12:46:24.8,478
2015-07-24 12:46:24.9,498
2015-07-24 12:46:24.9,490
2015-07-24 12:46:25.0,455
2015-07-24 12:46:25.0,441
2015-07-24 12:46:25.1,426
2015-07-24 12:46:25.1,408
2015-07-24 12:46:25.2,376
2015-07-24 12:46:25.2,349
2015-07-24 12:46:25.3,339
2015-07-24 12:46:25.3,343
2015-07-24 12:46:25.4,370
2015-07-24 12:46:25.4,397
2015-07-24 12:46:25.5,437
2015-07-24 12:46:25.5,446
2015-07-24 12:46:25.6,439
2015-07-24 12:46:25.6,403
2015-07-24 12:46:25.7,356
2015-07-24 12:46:25.7,345
2015-07-24 12:46:25.8,448
2015-07-24 12:46:25.8,584
2015-07-24 12:46:25.9,559
2015-07-24 12:46:25.9,559
2015-07-24 12:46:26.0,560
2015-07-24 12:46:26.0,560
2015-07-24 12:46:26.1,556
2015-07-24 12:46:26.1,540
2015-07-24 12:46:26.2,485
2015-07-24 12:46:26.2,414
2015-07-24 12:46:26.3,373
2015-07-24 12:46:26.3,346
2015-07-24 12:46:26.4,324
2015-07-24 12:46:26.4,348
2015-07-24 12:46:26.5,357
2015-07-24 12:46:26.5,327
2015-07-24 12:46:26.6,296
2015-07-24 12:46:26.6,307
2015-07-24 12:46:26.7,374
2015-07-24 12:46:26.7,495
2015-07-24 12:46:26.8,556
2015-07-24 12:46:26.8,516
2015-07-24 12:46:26.9,454
2015-07-24 12:46:26.9,388
2015-07-24 12:46:27.0,373
2015-07-24 12:46:27.0,393
2015-07-24 12:46:27.1,425
2015-07-24 12:46:27.1,422
2015-07-24 12:46:27.2,410
2015-07-24 12:46:27.2,393
2015-07-24 12:46:27.3,357
2015-07-24 12:46:27.3,370
2015-07-24 12:46:27.4,407
2015-07-24 12:46:27.4,399
2015-07-24 12:46:27.5,411
2015-07-24 12:46:27.5,431
2015-07-24 12:46:27.6,458
2015-07-24 12:46:27.6,498
2015-07-24 12:46:27.7,563
2015-07-24 12:46:27.7,559
2015-07-24 12:46:27.8,560
2015-07-24 12:46:27.8,510
2015-07-24 12:46:27.9,442
2015-07-24 12:46:27.9,403
2015-07-24 12:46:28.0,366
2015-07-24 12:46:28.0,346
2015-07-24 12:46:28.1,333
2015-07-24 12:46:28.1,331
2015-07-24 12:46:28.2,324
2015-07-24 12:46:28.2,325
2015-07-24 12:46:28.3,337
2015-07-24 12:46:28.3,361
2015-07-24 12:46:28.4,390
2015-07-24 12:46:28.4,425
2015-07-24 12:46:28.5,534
2015-07-24 12:46:28.5,576
2015-07-24 12:46:28.6,561
2015-07-24 12:46:28.6,561
2015-07-24 12:46:28.7,560
2015-07-24 12:46:28.7,552
2015-07-24 12:46:28.8,551
2015-07-24 12:46:28.8,525
2015-07-24 12:46:28.9,468
2015-07-24 12:46:28.9,439
2015-07-24 12:46:29.0,428
2015-07-24 12:46:29.0,400
2015-07-24 12:46:29.1,397
2015-07-24 12:46:29.1,408
2015-07-24 12:46:29.2,406
2015-07-24 12:46:29.2,377
2015-07-24 12:46:29.3,420
2015-07-24 12:46:29.3,550
2015-07-24 12:46:29.4,572
2015-07-24 12:46:29.4,563
2015-07-24 12:46:29.5,559
2015-07-24 12:46:29.5,550
2015-07-24 12:46:29.6,505
2015-07-24 12:46:29.6,465
2015-07-24 12:46:29.7,427
2015-07-24 12:46:29.7,382
2015-07-24 12:46:29.8,368
2015-07-24 12:46:29.8,361
2015-07-24 12:46:29.9,354
2015-07-24 12:46:29.9,307
2015-07-24 12:46:30.0,292
2015-07-24 12:46:30.0,303
2015-07-24 12:46:30.1,421
2015-07-24 12:46:30.1,636
2015-07-24 12:46:30.2,676
2015-07-24 12:46:30.2,627
2015-07-24 12:46:30.3,545
2015-07-24 12:46:30.3,521
2015-07-24 12:46:30.4,450
2015-07-24 12:46:30.4,385
2015-07-24 12:46:30.5,352
2015-07-24 12:46:30.5,306
2015-07-24 12:46:30.6,261
2015-07-24 12:46:30.6,215
2015-07-24 12:46:30.7,195
2015-07-24 12:46:30.7,180
2015-07-24 12:46:30.8,164
2015-07-24 12:46:30.8,189
2015-07-24 12:46:30.9,364
2015-07-24 12:46:30.9,688
2015-07-24 12:46:31.0,799
2015-07-24 12:46:31.0,794
2015-07-24 12:46:31.1,675
2015-07-24 12:46:31.1,525
2015-07-24 12:46:31.2,516
2015-07-24 12:46:31.2,493
2015-07-24 12:46:31.3,444
2015-07-24 12:46:31.3,366
2015-07-24 12:46:31.4,325
2015-07-24 12:46:31.4,295
2015-07-24 12:46:31.5,248
2015-07-24 12:46:31.5,189
2015-07-24 12:46:31.6,152
2015-07-24 12:46:31.6,134
2015-07-24 12:46:31.7,126
2015-07-24 12:46:31.7,146
2015-07-24 12:46:31.8,171
2015-07-24 12:46:31.8,264
2015-07-24 12:46:31.9,611
2015-07-24 12:46:31.9,771
2015-07-24 12:46:32.0,745
2015-07-24 12:46:32.0,598
2015-07-24 12:46:32.1,502
2015-07-24 12:46:32.1,459
2015-07-24 12:46:32.2,436
2015-07-24 12:46:32.3,403
2015-07-24 12:46:32.3,352
2015-07-24 12:46:32.4,322
2015-07-24 12:46:32.4,287
2015-07-24 12:46:32.5,265
2015-07-24 12:46:32.5,235
2015-07-24 12:46:32.6,223
2015-07-24 12:46:32.6,242
2015-07-24 12:46:32.7,236
2015-07-24 12:46:32.7,240
2015-07-24 12:46:32.8,230
2015-07-24 12:46:32.8,232
2015-07-24 12:46:32.9,243
2015-07-24 12:46:32.9,266
2015-07-24 12:46:33.0,475
2015-07-24 12:46:33.0,742
2015-07-24 12:46:33.1,846
2015-07-24 12:46:33.1,758
2015-07-24 12:46:33.2,552
2015-07-24 12:46:33.2,490
2015-07-24 12:46:33.3,482
2015-07-24 12:46:33.3,455
2015-07-24 12:46:33.4,422
2015-07-24 12:46:33.4,401
2015-07-24 12:46:33.5,360
2015-07-24 12:46:33.5,333
2015-07-24 12:46:33.6,293
2015-07-24 12:46:33.6,263
2015-07-24 12:46:33.7,260
2015-07-24 12:46:33.7,267
2015-07-24 12:46:33.8,257
2015-07-24 12:46:33.8,246
2015-07-24 12:46:33.9,261
2015-07-24 12:46:33.9,280
2015-07-24 12:46:34.0,316
2015-07-24 12:46:34.0,505
2015-07-24 12:46:34.1,727
2015-07-24 12:46:34.1,783
2015-07-24 12:46:34.2,704
2015-07-24 12:46:34.2,541
2015-07-24 12:46:34.3,532
2015-07-24 12:46:34.3,524
2015-07-24 12:46:34.4,501
2015-07-24 12:46:34.4,449
2015-07-24 12:46:34.5,398
2015-07-24 12:46:34.5,344
2015-07-24 12:46:34.6,317
2015-07-24 12:46:34.6,303
2015-07-24 12:46:34.7,294
2015-07-24 12:46:34.7,276
2015-07-24 12:46:34.8,307
2015-07-24 12:46:34.8,322
2015-07-24 12:46:34.9,312
2015-07-24 12:46:34.9,315
2015-07-24 12:46:35.0,293
2015-07-24 12:46:35.0,292
2015-07-24 12:46:35.1,342
2015-07-24 12:46:35.1,604
2015-07-24 12:46:35.2,777
2015-07-24 12:46:35.2,803
2015-07-24 12:46:35.3,740
2015-07-24 12:46:35.3,610
2015-07-24 12:46:35.4,564
2015-07-24 12:46:35.4,559
2015-07-24 12:46:35.5,558
2015-07-24 12:46:35.5,535
2015-07-24 12:46:35.6,469
2015-07-24 12:46:35.6,415
2015-07-24 12:46:35.7,389
2015-07-24 12:46:35.7,377
2015-07-24 12:46:35.8,352
2015-07-24 12:46:35.8,335
2015-07-24 12:46:35.9,302
2015-07-24 12:46:35.9,255
2015-07-24 12:46:36.0,239
2015-07-24 12:46:36.0,239
2015-07-24 12:46:36.1,231
2015-07-24 12:46:36.1,214
2015-07-24 12:46:36.2,221
2015-07-24 12:46:36.2,242
2015-07-24 12:46:36.3,310
2015-07-24 12:46:36.3,446
2015-07-24 12:46:36.4,536
2015-07-24 12:46:36.4,559
2015-07-24 12:46:36.5,543
2015-07-24 12:46:36.5,461
2015-07-24 12:46:36.6,355
2015-07-24 12:46:36.6,296
2015-07-24 12:46:36.7,266
2015-07-24 12:46:36.7,248
2015-07-24 12:46:36.8,247
2015-07-24 12:46:36.8,248
2015-07-24 12:46:36.9,296
2015-07-24 12:46:36.9,321
2015-07-24 12:46:37.0,315
2015-07-24 12:46:37.0,335
2015-07-24 12:46:37.1,371
2015-07-24 12:46:37.1,413
2015-07-24 12:46:37.2,420
2015-07-24 12:46:37.2,415
2015-07-24 12:46:37.3,409
2015-07-24 12:46:37.3,458
2015-07-24 12:46:37.4,574
2015-07-24 12:46:37.4,559
2015-07-24 12:46:37.5,560
2015-07-24 12:46:37.5,560
2015-07-24 12:46:37.6,545
2015-07-24 12:46:37.6,537
2015-07-24 12:46:37.7,517
2015-07-24 12:46:37.7,494
2015-07-24 12:46:37.8,507
2015-07-24 12:46:37.8,509
2015-07-24 12:46:37.9,478
2015-07-24 12:46:37.9,435
2015-07-24 12:46:38.0,414
2015-07-24 12:46:38.0,395
2015-07-24 12:46:38.1,369
2015-07-24 12:46:38.1,368
2015-07-24 12:46:38.2,371
2015-07-24 12:46:38.2,364
2015-07-24 12:46:38.3,387
2015-07-24 12:46:38.3,449
2015-07-24 12:46:38.4,510
2015-07-24 12:46:38.4,520
2015-07-24 12:46:38.5,516
2015-07-24 12:46:38.5,478
2015-07-24 12:46:38.6,431
2015-07-24 12:46:38.6,415
2015-07-24 12:46:38.7,404
2015-07-24 12:46:38.7,391
2015-07-24 12:46:38.8,379
2015-07-24 12:46:38.8,378
2015-07-24 12:46:38.9,363
2015-07-24 12:46:38.9,353
2015-07-24 12:46:39.0,371
2015-07-24 12:46:39.0,375
2015-07-24 12:46:39.1,371
2015-07-24 12:46:39.1,366
2015-07-24 12:46:39.2,431
2015-07-24 12:46:39.2,519
2015-07-24 12:46:39.3,561
2015-07-24 12:46:39.3,556
2015-07-24 12:46:39.4,544
2015-07-24 12:46:39.4,504
2015-07-24 12:46:39.5,449
2015-07-24 12:46:39.5,438
2015-07-24 12:46:39.6,452
2015-07-24 12:46:39.6,437
2015-07-24 12:46:39.7,405
2015-07-24 12:46:39.7,358
2015-07-24 12:46:39.8,336
2015-07-24 12:46:39.8,326
2015-07-24 12:46:39.9,342
2015-07-24 12:46:40.0,346
2015-07-24 12:46:40.0,337
2015-07-24 12:46:40.0,390
2015-07-24 12:46:40.1,479
2015-07-24 12:46:40.2,549
2015-07-24 12:46:40.2,559
2015-07-24 12:46:40.3,541
2015-07-24 12:46:40.3,508
2015-07-24 12:46:40.4,476
2015-07-24 12:46:40.4,455
2015-07-24 12:46:40.4,413
2015-07-24 12:46:40.5,386
2015-07-24 12:46:40.6,366
2015-07-24 12:46:40.6,359
2015-07-24 12:46:40.7,352
2015-07-24 12:46:40.7,337
2015-07-24 12:46:40.8,356
2015-07-24 12:46:40.8,371
2015-07-24 12:46:40.9,381
2015-07-24 12:46:40.9,387
2015-07-24 12:46:41.0,436
2015-07-24 12:46:41.0,506
2015-07-24 12:46:41.1,521
2015-07-24 12:46:41.1,512
2015-07-24 12:46:41.2,472
2015-07-24 12:46:41.2,429
2015-07-24 12:46:41.3,396
2015-07-24 12:46:41.3,387
2015-07-24 12:46:41.4,380
2015-07-24 12:46:41.4,368
2015-07-24 12:46:41.5,360
2015-07-24 12:46:41.5,356
2015-07-24 12:46:41.6,350
2015-07-24 12:46:41.6,335
2015-07-24 12:46:41.7,343
2015-07-24 12:46:41.7,345
2015-07-24 12:46:41.8,347
2015-07-24 12:46:41.8,369
2015-07-24 12:46:41.9,435
2015-07-24 12:46:41.9,522
2015-07-24 12:46:42.0,560
2015-07-24 12:46:42.0,548
2015-07-24 12:46:42.1,516
2015-07-24 12:46:42.1,469
2015-07-24 12:46:42.2,434
2015-07-24 12:46:42.2,442
2015-07-24 12:46:42.3,439
2015-07-24 12:46:42.3,433
2015-07-24 12:46:42.4,439
2015-07-24 12:46:42.4,392
2015-07-24 12:46:42.5,347
2015-07-24 12:46:42.5,320
2015-07-24 12:46:42.6,327
2015-07-24 12:46:42.6,332
2015-07-24 12:46:42.7,328
2015-07-24 12:46:42.7,340
2015-07-24 12:46:42.8,368
2015-07-24 12:46:42.8,445
2015-07-24 12:46:42.9,522
2015-07-24 12:46:42.9,558
2015-07-24 12:46:43.0,560
2015-07-24 12:46:43.0,503
2015-07-24 12:46:43.1,459
2015-07-24 12:46:43.1,434
2015-07-24 12:46:43.2,423
2015-07-24 12:46:43.2,398
2015-07-24 12:46:43.3,389
2015-07-24 12:46:43.3,382
2015-07-24 12:46:43.4,363
2015-07-24 12:46:43.4,368
2015-07-24 12:46:43.5,372
2015-07-24 12:46:43.5,371
2015-07-24 12:46:43.6,363
2015-07-24 12:46:43.6,371
2015-07-24 12:46:43.7,373
2015-07-24 12:46:43.7,381
2015-07-24 12:46:43.8,404
2015-07-24 12:46:43.8,465
2015-07-24 12:46:43.9,546
2015-07-24 12:46:43.9,559
2015-07-24 12:46:44.0,545
2015-07-24 12:46:44.0,510
2015-07-24 12:46:44.1,443
2015-07-24 12:46:44.1,425
2015-07-24 12:46:44.2,429
2015-07-24 12:46:44.2,400
2015-07-24 12:46:44.3,368
